#  E (eV)   dos(E)     Int dos(E) EFermi =    6.741 eV
  -9.334  0.3067E-03  0.3067E-05
  -9.324  0.3691E-03  0.6758E-05
  -9.314  0.4435E-03  0.1119E-04
  -9.304  0.5321E-03  0.1651E-04
  -9.294  0.6374E-03  0.2289E-04
  -9.284  0.7622E-03  0.3051E-04
  -9.274  0.9099E-03  0.3961E-04
  -9.264  0.1085E-02  0.5045E-04
  -9.254  0.1291E-02  0.6336E-04
  -9.244  0.1533E-02  0.7870E-04
  -9.234  0.1819E-02  0.9688E-04
  -9.224  0.2154E-02  0.1184E-03
  -9.214  0.2547E-02  0.1439E-03
  -9.204  0.3006E-02  0.1740E-03
  -9.194  0.3543E-02  0.2094E-03
  -9.184  0.4169E-02  0.2511E-03
  -9.174  0.4898E-02  0.3001E-03
  -9.164  0.5744E-02  0.3575E-03
  -9.154  0.6727E-02  0.4248E-03
  -9.144  0.7864E-02  0.5034E-03
  -9.134  0.9179E-02  0.5952E-03
  -9.124  0.1070E-01  0.7022E-03
  -9.114  0.1245E-01  0.8266E-03
  -9.104  0.1446E-01  0.9712E-03
  -9.094  0.1677E-01  0.1139E-02
  -9.084  0.1942E-01  0.1333E-02
  -9.074  0.2245E-01  0.1558E-02
  -9.064  0.2591E-01  0.1817E-02
  -9.054  0.2986E-01  0.2115E-02
  -9.044  0.3435E-01  0.2459E-02
  -9.034  0.3946E-01  0.2853E-02
  -9.024  0.4526E-01  0.3306E-02
  -9.014  0.5183E-01  0.3824E-02
  -9.004  0.5925E-01  0.4417E-02
  -8.994  0.6764E-01  0.5093E-02
  -8.984  0.7708E-01  0.5864E-02
  -8.974  0.8770E-01  0.6741E-02
  -8.964  0.9964E-01  0.7737E-02
  -8.954  0.1130E+00  0.8867E-02
  -8.944  0.1280E+00  0.1015E-01
  -8.934  0.1447E+00  0.1159E-01
  -8.924  0.1633E+00  0.1323E-01
  -8.914  0.1841E+00  0.1507E-01
  -8.904  0.2072E+00  0.1714E-01
  -8.894  0.2328E+00  0.1947E-01
  -8.884  0.2611E+00  0.2208E-01
  -8.874  0.2924E+00  0.2500E-01
  -8.864  0.3270E+00  0.2827E-01
  -8.854  0.3651E+00  0.3192E-01
  -8.844  0.4069E+00  0.3599E-01
  -8.834  0.4529E+00  0.4052E-01
  -8.824  0.5032E+00  0.4555E-01
  -8.814  0.5583E+00  0.5114E-01
  -8.804  0.6184E+00  0.5732E-01
  -8.794  0.6839E+00  0.6416E-01
  -8.784  0.7552E+00  0.7171E-01
  -8.774  0.8326E+00  0.8004E-01
  -8.764  0.9164E+00  0.8920E-01
  -8.754  0.1007E+01  0.9928E-01
  -8.744  0.1105E+01  0.1103E+00
  -8.734  0.1211E+01  0.1224E+00
  -8.724  0.1324E+01  0.1357E+00
  -8.714  0.1446E+01  0.1501E+00
  -8.704  0.1577E+01  0.1659E+00
  -8.694  0.1717E+01  0.1831E+00
  -8.684  0.1866E+01  0.2017E+00
  -8.674  0.2025E+01  0.2220E+00
  -8.664  0.2194E+01  0.2439E+00
  -8.654  0.2374E+01  0.2677E+00
  -8.644  0.2564E+01  0.2933E+00
  -8.634  0.2765E+01  0.3210E+00
  -8.624  0.2977E+01  0.3507E+00
  -8.614  0.3200E+01  0.3827E+00
  -8.604  0.3435E+01  0.4171E+00
  -8.594  0.3681E+01  0.4539E+00
  -8.584  0.3939E+01  0.4933E+00
  -8.574  0.4208E+01  0.5354E+00
  -8.564  0.4488E+01  0.5802E+00
  -8.554  0.4779E+01  0.6280E+00
  -8.544  0.5081E+01  0.6788E+00
  -8.534  0.5394E+01  0.7328E+00
  -8.524  0.5717E+01  0.7899E+00
  -8.514  0.6049E+01  0.8504E+00
  -8.504  0.6391E+01  0.9143E+00
  -8.494  0.6742E+01  0.9818E+00
  -8.484  0.7100E+01  0.1053E+01
  -8.474  0.7466E+01  0.1127E+01
  -8.464  0.7838E+01  0.1206E+01
  -8.454  0.8215E+01  0.1288E+01
  -8.444  0.8598E+01  0.1374E+01
  -8.434  0.8983E+01  0.1464E+01
  -8.424  0.9371E+01  0.1557E+01
  -8.414  0.9760E+01  0.1655E+01
  -8.404  0.1015E+02  0.1757E+01
  -8.394  0.1054E+02  0.1862E+01
  -8.384  0.1092E+02  0.1971E+01
  -8.374  0.1130E+02  0.2084E+01
  -8.364  0.1168E+02  0.2201E+01
  -8.354  0.1205E+02  0.2322E+01
  -8.344  0.1241E+02  0.2446E+01
  -8.334  0.1276E+02  0.2573E+01
  -8.324  0.1310E+02  0.2704E+01
  -8.314  0.1343E+02  0.2839E+01
  -8.304  0.1375E+02  0.2976E+01
  -8.294  0.1405E+02  0.3117E+01
  -8.284  0.1433E+02  0.3260E+01
  -8.274  0.1459E+02  0.3406E+01
  -8.264  0.1484E+02  0.3554E+01
  -8.254  0.1507E+02  0.3705E+01
  -8.244  0.1527E+02  0.3858E+01
  -8.234  0.1545E+02  0.4012E+01
  -8.224  0.1561E+02  0.4168E+01
  -8.214  0.1575E+02  0.4326E+01
  -8.204  0.1586E+02  0.4484E+01
  -8.194  0.1595E+02  0.4644E+01
  -8.184  0.1601E+02  0.4804E+01
  -8.174  0.1604E+02  0.4964E+01
  -8.164  0.1605E+02  0.5125E+01
  -8.154  0.1604E+02  0.5285E+01
  -8.144  0.1599E+02  0.5445E+01
  -8.134  0.1593E+02  0.5604E+01
  -8.124  0.1583E+02  0.5763E+01
  -8.114  0.1571E+02  0.5920E+01
  -8.104  0.1557E+02  0.6075E+01
  -8.094  0.1540E+02  0.6230E+01
  -8.084  0.1521E+02  0.6382E+01
  -8.074  0.1500E+02  0.6532E+01
  -8.064  0.1477E+02  0.6679E+01
  -8.054  0.1452E+02  0.6825E+01
  -8.044  0.1424E+02  0.6967E+01
  -8.034  0.1395E+02  0.7107E+01
  -8.024  0.1365E+02  0.7243E+01
  -8.014  0.1333E+02  0.7376E+01
  -8.004  0.1299E+02  0.7506E+01
  -7.994  0.1264E+02  0.7633E+01
  -7.984  0.1229E+02  0.7756E+01
  -7.974  0.1192E+02  0.7875E+01
  -7.964  0.1154E+02  0.7990E+01
  -7.954  0.1116E+02  0.8102E+01
  -7.944  0.1077E+02  0.8210E+01
  -7.934  0.1038E+02  0.8313E+01
  -7.924  0.9990E+01  0.8413E+01
  -7.914  0.9596E+01  0.8509E+01
  -7.904  0.9203E+01  0.8601E+01
  -7.894  0.8810E+01  0.8689E+01
  -7.884  0.8421E+01  0.8774E+01
  -7.874  0.8036E+01  0.8854E+01
  -7.864  0.7655E+01  0.8930E+01
  -7.854  0.7281E+01  0.9003E+01
  -7.844  0.6913E+01  0.9072E+01
  -7.834  0.6554E+01  0.9138E+01
  -7.824  0.6202E+01  0.9200E+01
  -7.814  0.5860E+01  0.9259E+01
  -7.804  0.5527E+01  0.9314E+01
  -7.794  0.5205E+01  0.9366E+01
  -7.784  0.4893E+01  0.9415E+01
  -7.774  0.4593E+01  0.9461E+01
  -7.764  0.4303E+01  0.9504E+01
  -7.754  0.4025E+01  0.9544E+01
  -7.744  0.3759E+01  0.9582E+01
  -7.734  0.3505E+01  0.9617E+01
  -7.724  0.3262E+01  0.9649E+01
  -7.714  0.3031E+01  0.9680E+01
  -7.704  0.2812E+01  0.9708E+01
  -7.694  0.2605E+01  0.9734E+01
  -7.684  0.2408E+01  0.9758E+01
  -7.674  0.2223E+01  0.9780E+01
  -7.664  0.2048E+01  0.9801E+01
  -7.654  0.1884E+01  0.9819E+01
  -7.644  0.1731E+01  0.9837E+01
  -7.634  0.1587E+01  0.9853E+01
  -7.624  0.1453E+01  0.9867E+01
  -7.614  0.1327E+01  0.9880E+01
  -7.604  0.1211E+01  0.9893E+01
  -7.594  0.1103E+01  0.9904E+01
  -7.584  0.1003E+01  0.9914E+01
  -7.574  0.9104E+00  0.9923E+01
  -7.564  0.8250E+00  0.9931E+01
  -7.554  0.7464E+00  0.9938E+01
  -7.544  0.6741E+00  0.9945E+01
  -7.534  0.6078E+00  0.9951E+01
  -7.524  0.5471E+00  0.9957E+01
  -7.514  0.4917E+00  0.9962E+01
  -7.504  0.4411E+00  0.9966E+01
  -7.494  0.3950E+00  0.9970E+01
  -7.484  0.3532E+00  0.9974E+01
  -7.474  0.3153E+00  0.9977E+01
  -7.464  0.2810E+00  0.9979E+01
  -7.454  0.2499E+00  0.9982E+01
  -7.444  0.2220E+00  0.9984E+01
  -7.434  0.1968E+00  0.9986E+01
  -7.424  0.1742E+00  0.9988E+01
  -7.414  0.1539E+00  0.9989E+01
  -7.404  0.1358E+00  0.9991E+01
  -7.394  0.1196E+00  0.9992E+01
  -7.384  0.1051E+00  0.9993E+01
  -7.374  0.9227E-01  0.9994E+01
  -7.364  0.8084E-01  0.9995E+01
  -7.354  0.7072E-01  0.9995E+01
  -7.344  0.6175E-01  0.9996E+01
  -7.334  0.5383E-01  0.9997E+01
  -7.324  0.4685E-01  0.9997E+01
  -7.314  0.4071E-01  0.9998E+01
  -7.304  0.3531E-01  0.9998E+01
  -7.294  0.3057E-01  0.9998E+01
  -7.284  0.2643E-01  0.9998E+01
  -7.274  0.2281E-01  0.9999E+01
  -7.264  0.1965E-01  0.9999E+01
  -7.254  0.1690E-01  0.9999E+01
  -7.244  0.1451E-01  0.9999E+01
  -7.234  0.1244E-01  0.9999E+01
  -7.224  0.1064E-01  0.9999E+01
  -7.214  0.9091E-02  0.9999E+01
  -7.204  0.7753E-02  0.1000E+02
  -7.194  0.6601E-02  0.1000E+02
  -7.184  0.5611E-02  0.1000E+02
  -7.174  0.4761E-02  0.1000E+02
  -7.164  0.4034E-02  0.1000E+02
  -7.154  0.3412E-02  0.1000E+02
  -7.144  0.2882E-02  0.1000E+02
  -7.134  0.2430E-02  0.1000E+02
  -7.124  0.2046E-02  0.1000E+02
  -7.114  0.1721E-02  0.1000E+02
  -7.104  0.1445E-02  0.1000E+02
  -7.094  0.1213E-02  0.1000E+02
  -7.084  0.1017E-02  0.1000E+02
  -7.074  0.8529E-03  0.1000E+02
  -7.064  0.7154E-03  0.1000E+02
  -7.054  0.6008E-03  0.1000E+02
  -7.044  0.5057E-03  0.1000E+02
  -7.034  0.4273E-03  0.1000E+02
  -7.024  0.3631E-03  0.1000E+02
  -7.014  0.3112E-03  0.1000E+02
  -7.004  0.2698E-03  0.1000E+02
  -6.994  0.2374E-03  0.1000E+02
  -6.984  0.2130E-03  0.1000E+02
  -6.974  0.1955E-03  0.1000E+02
  -6.964  0.1841E-03  0.1000E+02
  -6.954  0.1784E-03  0.1000E+02
  -6.944  0.1778E-03  0.1000E+02
  -6.934  0.1820E-03  0.1000E+02
  -6.924  0.1908E-03  0.1000E+02
  -6.914  0.2042E-03  0.1000E+02
  -6.904  0.2220E-03  0.1000E+02
  -6.894  0.2444E-03  0.1000E+02
  -6.884  0.2716E-03  0.1000E+02
  -6.874  0.3038E-03  0.1000E+02
  -6.864  0.3413E-03  0.1000E+02
  -6.854  0.3845E-03  0.1000E+02
  -6.844  0.4338E-03  0.1000E+02
  -6.834  0.4899E-03  0.1000E+02
  -6.824  0.5532E-03  0.1000E+02
  -6.814  0.6245E-03  0.1000E+02
  -6.804  0.7045E-03  0.1000E+02
  -6.794  0.7940E-03  0.1000E+02
  -6.784  0.8938E-03  0.1000E+02
  -6.774  0.1005E-02  0.1000E+02
  -6.764  0.1129E-02  0.1000E+02
  -6.754  0.1266E-02  0.1000E+02
  -6.744  0.1417E-02  0.1000E+02
  -6.734  0.1585E-02  0.1000E+02
  -6.724  0.1770E-02  0.1000E+02
  -6.714  0.1974E-02  0.1000E+02
  -6.704  0.2198E-02  0.1000E+02
  -6.694  0.2443E-02  0.1000E+02
  -6.684  0.2713E-02  0.1000E+02
  -6.674  0.3007E-02  0.1000E+02
  -6.664  0.3329E-02  0.1000E+02
  -6.654  0.3680E-02  0.1000E+02
  -6.644  0.4063E-02  0.1000E+02
  -6.634  0.4478E-02  0.1000E+02
  -6.624  0.4929E-02  0.1000E+02
  -6.614  0.5418E-02  0.1000E+02
  -6.604  0.5947E-02  0.1000E+02
  -6.594  0.6518E-02  0.1000E+02
  -6.584  0.7134E-02  0.1000E+02
  -6.574  0.7798E-02  0.1000E+02
  -6.564  0.8511E-02  0.1000E+02
  -6.554  0.9277E-02  0.1000E+02
  -6.544  0.1010E-01  0.1000E+02
  -6.534  0.1098E-01  0.1000E+02
  -6.524  0.1191E-01  0.1000E+02
  -6.514  0.1292E-01  0.1000E+02
  -6.504  0.1398E-01  0.1000E+02
  -6.494  0.1512E-01  0.1000E+02
  -6.484  0.1632E-01  0.1000E+02
  -6.474  0.1760E-01  0.1000E+02
  -6.464  0.1895E-01  0.1000E+02
  -6.454  0.2038E-01  0.1000E+02
  -6.444  0.2189E-01  0.1000E+02
  -6.434  0.2349E-01  0.1000E+02
  -6.424  0.2516E-01  0.1000E+02
  -6.414  0.2692E-01  0.1000E+02
  -6.404  0.2877E-01  0.1000E+02
  -6.394  0.3071E-01  0.1000E+02
  -6.384  0.3274E-01  0.1000E+02
  -6.374  0.3485E-01  0.1000E+02
  -6.364  0.3707E-01  0.1001E+02
  -6.354  0.3937E-01  0.1001E+02
  -6.344  0.4177E-01  0.1001E+02
  -6.334  0.4426E-01  0.1001E+02
  -6.324  0.4684E-01  0.1001E+02
  -6.314  0.4952E-01  0.1001E+02
  -6.304  0.5229E-01  0.1001E+02
  -6.294  0.5516E-01  0.1001E+02
  -6.284  0.5811E-01  0.1001E+02
  -6.274  0.6116E-01  0.1001E+02
  -6.264  0.6430E-01  0.1001E+02
  -6.254  0.6752E-01  0.1001E+02
  -6.244  0.7084E-01  0.1001E+02
  -6.234  0.7423E-01  0.1001E+02
  -6.224  0.7771E-01  0.1001E+02
  -6.214  0.8127E-01  0.1001E+02
  -6.204  0.8491E-01  0.1001E+02
  -6.194  0.8862E-01  0.1002E+02
  -6.184  0.9240E-01  0.1002E+02
  -6.174  0.9625E-01  0.1002E+02
  -6.164  0.1002E+00  0.1002E+02
  -6.154  0.1041E+00  0.1002E+02
  -6.144  0.1082E+00  0.1002E+02
  -6.134  0.1123E+00  0.1002E+02
  -6.124  0.1164E+00  0.1002E+02
  -6.114  0.1206E+00  0.1002E+02
  -6.104  0.1249E+00  0.1003E+02
  -6.094  0.1291E+00  0.1003E+02
  -6.084  0.1334E+00  0.1003E+02
  -6.074  0.1378E+00  0.1003E+02
  -6.064  0.1422E+00  0.1003E+02
  -6.054  0.1466E+00  0.1003E+02
  -6.044  0.1510E+00  0.1003E+02
  -6.034  0.1554E+00  0.1004E+02
  -6.024  0.1599E+00  0.1004E+02
  -6.014  0.1644E+00  0.1004E+02
  -6.004  0.1689E+00  0.1004E+02
  -5.994  0.1734E+00  0.1004E+02
  -5.984  0.1778E+00  0.1004E+02
  -5.974  0.1823E+00  0.1005E+02
  -5.964  0.1868E+00  0.1005E+02
  -5.954  0.1913E+00  0.1005E+02
  -5.944  0.1958E+00  0.1005E+02
  -5.934  0.2003E+00  0.1005E+02
  -5.924  0.2047E+00  0.1006E+02
  -5.914  0.2092E+00  0.1006E+02
  -5.904  0.2136E+00  0.1006E+02
  -5.894  0.2180E+00  0.1006E+02
  -5.884  0.2224E+00  0.1006E+02
  -5.874  0.2268E+00  0.1007E+02
  -5.864  0.2312E+00  0.1007E+02
  -5.854  0.2355E+00  0.1007E+02
  -5.844  0.2398E+00  0.1007E+02
  -5.834  0.2441E+00  0.1008E+02
  -5.824  0.2484E+00  0.1008E+02
  -5.814  0.2526E+00  0.1008E+02
  -5.804  0.2568E+00  0.1008E+02
  -5.794  0.2610E+00  0.1009E+02
  -5.784  0.2652E+00  0.1009E+02
  -5.774  0.2694E+00  0.1009E+02
  -5.764  0.2735E+00  0.1009E+02
  -5.754  0.2776E+00  0.1010E+02
  -5.744  0.2817E+00  0.1010E+02
  -5.734  0.2858E+00  0.1010E+02
  -5.724  0.2898E+00  0.1011E+02
  -5.714  0.2939E+00  0.1011E+02
  -5.704  0.2979E+00  0.1011E+02
  -5.694  0.3019E+00  0.1011E+02
  -5.684  0.3058E+00  0.1012E+02
  -5.674  0.3098E+00  0.1012E+02
  -5.664  0.3137E+00  0.1012E+02
  -5.654  0.3176E+00  0.1013E+02
  -5.644  0.3216E+00  0.1013E+02
  -5.634  0.3255E+00  0.1013E+02
  -5.624  0.3293E+00  0.1014E+02
  -5.614  0.3332E+00  0.1014E+02
  -5.604  0.3371E+00  0.1014E+02
  -5.594  0.3409E+00  0.1015E+02
  -5.584  0.3448E+00  0.1015E+02
  -5.574  0.3486E+00  0.1015E+02
  -5.564  0.3525E+00  0.1016E+02
  -5.554  0.3563E+00  0.1016E+02
  -5.544  0.3601E+00  0.1016E+02
  -5.534  0.3639E+00  0.1017E+02
  -5.524  0.3678E+00  0.1017E+02
  -5.514  0.3716E+00  0.1018E+02
  -5.504  0.3754E+00  0.1018E+02
  -5.494  0.3792E+00  0.1018E+02
  -5.484  0.3830E+00  0.1019E+02
  -5.474  0.3869E+00  0.1019E+02
  -5.464  0.3907E+00  0.1019E+02
  -5.454  0.3945E+00  0.1020E+02
  -5.444  0.3984E+00  0.1020E+02
  -5.434  0.4022E+00  0.1021E+02
  -5.424  0.4061E+00  0.1021E+02
  -5.414  0.4100E+00  0.1021E+02
  -5.404  0.4138E+00  0.1022E+02
  -5.394  0.4177E+00  0.1022E+02
  -5.384  0.4216E+00  0.1023E+02
  -5.374  0.4255E+00  0.1023E+02
  -5.364  0.4295E+00  0.1024E+02
  -5.354  0.4334E+00  0.1024E+02
  -5.344  0.4374E+00  0.1024E+02
  -5.334  0.4414E+00  0.1025E+02
  -5.324  0.4454E+00  0.1025E+02
  -5.314  0.4494E+00  0.1026E+02
  -5.304  0.4534E+00  0.1026E+02
  -5.294  0.4575E+00  0.1027E+02
  -5.284  0.4616E+00  0.1027E+02
  -5.274  0.4657E+00  0.1028E+02
  -5.264  0.4699E+00  0.1028E+02
  -5.254  0.4740E+00  0.1029E+02
  -5.244  0.4782E+00  0.1029E+02
  -5.234  0.4825E+00  0.1030E+02
  -5.224  0.4867E+00  0.1030E+02
  -5.214  0.4910E+00  0.1031E+02
  -5.204  0.4953E+00  0.1031E+02
  -5.194  0.4997E+00  0.1031E+02
  -5.184  0.5041E+00  0.1032E+02
  -5.174  0.5086E+00  0.1033E+02
  -5.164  0.5131E+00  0.1033E+02
  -5.154  0.5176E+00  0.1034E+02
  -5.144  0.5222E+00  0.1034E+02
  -5.134  0.5268E+00  0.1035E+02
  -5.124  0.5315E+00  0.1035E+02
  -5.114  0.5362E+00  0.1036E+02
  -5.104  0.5410E+00  0.1036E+02
  -5.094  0.5458E+00  0.1037E+02
  -5.084  0.5507E+00  0.1037E+02
  -5.074  0.5556E+00  0.1038E+02
  -5.064  0.5607E+00  0.1038E+02
  -5.054  0.5657E+00  0.1039E+02
  -5.044  0.5709E+00  0.1040E+02
  -5.034  0.5761E+00  0.1040E+02
  -5.024  0.5814E+00  0.1041E+02
  -5.014  0.5868E+00  0.1041E+02
  -5.004  0.5922E+00  0.1042E+02
  -4.994  0.5978E+00  0.1042E+02
  -4.984  0.6034E+00  0.1043E+02
  -4.974  0.6091E+00  0.1044E+02
  -4.964  0.6149E+00  0.1044E+02
  -4.954  0.6208E+00  0.1045E+02
  -4.944  0.6268E+00  0.1046E+02
  -4.934  0.6328E+00  0.1046E+02
  -4.924  0.6390E+00  0.1047E+02
  -4.914  0.6453E+00  0.1047E+02
  -4.904  0.6517E+00  0.1048E+02
  -4.894  0.6582E+00  0.1049E+02
  -4.884  0.6648E+00  0.1049E+02
  -4.874  0.6716E+00  0.1050E+02
  -4.864  0.6784E+00  0.1051E+02
  -4.854  0.6854E+00  0.1051E+02
  -4.844  0.6925E+00  0.1052E+02
  -4.834  0.6997E+00  0.1053E+02
  -4.824  0.7071E+00  0.1054E+02
  -4.814  0.7146E+00  0.1054E+02
  -4.804  0.7222E+00  0.1055E+02
  -4.794  0.7299E+00  0.1056E+02
  -4.784  0.7378E+00  0.1056E+02
  -4.774  0.7457E+00  0.1057E+02
  -4.764  0.7539E+00  0.1058E+02
  -4.754  0.7621E+00  0.1059E+02
  -4.744  0.7705E+00  0.1060E+02
  -4.734  0.7790E+00  0.1060E+02
  -4.724  0.7876E+00  0.1061E+02
  -4.714  0.7964E+00  0.1062E+02
  -4.704  0.8052E+00  0.1063E+02
  -4.694  0.8142E+00  0.1064E+02
  -4.684  0.8233E+00  0.1064E+02
  -4.674  0.8325E+00  0.1065E+02
  -4.664  0.8418E+00  0.1066E+02
  -4.654  0.8513E+00  0.1067E+02
  -4.644  0.8608E+00  0.1068E+02
  -4.634  0.8703E+00  0.1069E+02
  -4.624  0.8800E+00  0.1069E+02
  -4.614  0.8897E+00  0.1070E+02
  -4.604  0.8995E+00  0.1071E+02
  -4.594  0.9094E+00  0.1072E+02
  -4.584  0.9193E+00  0.1073E+02
  -4.574  0.9292E+00  0.1074E+02
  -4.564  0.9392E+00  0.1075E+02
  -4.554  0.9492E+00  0.1076E+02
  -4.544  0.9592E+00  0.1077E+02
  -4.534  0.9692E+00  0.1078E+02
  -4.524  0.9791E+00  0.1079E+02
  -4.514  0.9891E+00  0.1080E+02
  -4.504  0.9990E+00  0.1081E+02
  -4.494  0.1009E+01  0.1082E+02
  -4.484  0.1019E+01  0.1083E+02
  -4.474  0.1028E+01  0.1084E+02
  -4.464  0.1038E+01  0.1085E+02
  -4.454  0.1048E+01  0.1086E+02
  -4.444  0.1057E+01  0.1087E+02
  -4.434  0.1066E+01  0.1088E+02
  -4.424  0.1076E+01  0.1089E+02
  -4.414  0.1085E+01  0.1090E+02
  -4.404  0.1094E+01  0.1091E+02
  -4.394  0.1102E+01  0.1092E+02
  -4.384  0.1111E+01  0.1094E+02
  -4.374  0.1120E+01  0.1095E+02
  -4.364  0.1128E+01  0.1096E+02
  -4.354  0.1136E+01  0.1097E+02
  -4.344  0.1144E+01  0.1098E+02
  -4.334  0.1151E+01  0.1099E+02
  -4.324  0.1159E+01  0.1100E+02
  -4.314  0.1166E+01  0.1102E+02
  -4.304  0.1173E+01  0.1103E+02
  -4.294  0.1180E+01  0.1104E+02
  -4.284  0.1187E+01  0.1105E+02
  -4.274  0.1193E+01  0.1106E+02
  -4.264  0.1199E+01  0.1107E+02
  -4.254  0.1205E+01  0.1109E+02
  -4.244  0.1211E+01  0.1110E+02
  -4.234  0.1216E+01  0.1111E+02
  -4.224  0.1221E+01  0.1112E+02
  -4.214  0.1226E+01  0.1114E+02
  -4.204  0.1231E+01  0.1115E+02
  -4.194  0.1235E+01  0.1116E+02
  -4.184  0.1239E+01  0.1117E+02
  -4.174  0.1243E+01  0.1118E+02
  -4.164  0.1247E+01  0.1120E+02
  -4.154  0.1250E+01  0.1121E+02
  -4.144  0.1253E+01  0.1122E+02
  -4.134  0.1256E+01  0.1123E+02
  -4.124  0.1259E+01  0.1125E+02
  -4.114  0.1261E+01  0.1126E+02
  -4.104  0.1263E+01  0.1127E+02
  -4.094  0.1265E+01  0.1129E+02
  -4.084  0.1266E+01  0.1130E+02
  -4.074  0.1267E+01  0.1131E+02
  -4.064  0.1268E+01  0.1132E+02
  -4.054  0.1268E+01  0.1134E+02
  -4.044  0.1269E+01  0.1135E+02
  -4.034  0.1268E+01  0.1136E+02
  -4.024  0.1268E+01  0.1137E+02
  -4.014  0.1267E+01  0.1139E+02
  -4.004  0.1266E+01  0.1140E+02
  -3.994  0.1264E+01  0.1141E+02
  -3.984  0.1262E+01  0.1142E+02
  -3.974  0.1260E+01  0.1144E+02
  -3.964  0.1257E+01  0.1145E+02
  -3.954  0.1254E+01  0.1146E+02
  -3.944  0.1250E+01  0.1147E+02
  -3.934  0.1246E+01  0.1149E+02
  -3.924  0.1241E+01  0.1150E+02
  -3.914  0.1236E+01  0.1151E+02
  -3.904  0.1231E+01  0.1152E+02
  -3.894  0.1225E+01  0.1154E+02
  -3.884  0.1218E+01  0.1155E+02
  -3.874  0.1211E+01  0.1156E+02
  -3.864  0.1203E+01  0.1157E+02
  -3.854  0.1194E+01  0.1158E+02
  -3.844  0.1185E+01  0.1160E+02
  -3.834  0.1176E+01  0.1161E+02
  -3.824  0.1165E+01  0.1162E+02
  -3.814  0.1155E+01  0.1163E+02
  -3.804  0.1143E+01  0.1164E+02
  -3.794  0.1131E+01  0.1165E+02
  -3.784  0.1118E+01  0.1167E+02
  -3.774  0.1105E+01  0.1168E+02
  -3.764  0.1091E+01  0.1169E+02
  -3.754  0.1076E+01  0.1170E+02
  -3.744  0.1061E+01  0.1171E+02
  -3.734  0.1045E+01  0.1172E+02
  -3.724  0.1028E+01  0.1173E+02
  -3.714  0.1011E+01  0.1174E+02
  -3.704  0.9938E+00  0.1175E+02
  -3.694  0.9756E+00  0.1176E+02
  -3.684  0.9569E+00  0.1177E+02
  -3.674  0.9377E+00  0.1178E+02
  -3.664  0.9180E+00  0.1179E+02
  -3.654  0.8978E+00  0.1180E+02
  -3.644  0.8773E+00  0.1181E+02
  -3.634  0.8563E+00  0.1181E+02
  -3.624  0.8350E+00  0.1182E+02
  -3.614  0.8134E+00  0.1183E+02
  -3.604  0.7915E+00  0.1184E+02
  -3.594  0.7694E+00  0.1185E+02
  -3.584  0.7471E+00  0.1185E+02
  -3.574  0.7246E+00  0.1186E+02
  -3.564  0.7020E+00  0.1187E+02
  -3.554  0.6794E+00  0.1187E+02
  -3.544  0.6567E+00  0.1188E+02
  -3.534  0.6340E+00  0.1189E+02
  -3.524  0.6114E+00  0.1189E+02
  -3.514  0.5889E+00  0.1190E+02
  -3.504  0.5665E+00  0.1191E+02
  -3.494  0.5443E+00  0.1191E+02
  -3.484  0.5223E+00  0.1192E+02
  -3.474  0.5006E+00  0.1192E+02
  -3.464  0.4792E+00  0.1193E+02
  -3.454  0.4581E+00  0.1193E+02
  -3.444  0.4374E+00  0.1193E+02
  -3.434  0.4170E+00  0.1194E+02
  -3.424  0.3971E+00  0.1194E+02
  -3.414  0.3777E+00  0.1195E+02
  -3.404  0.3587E+00  0.1195E+02
  -3.394  0.3402E+00  0.1195E+02
  -3.384  0.3222E+00  0.1196E+02
  -3.374  0.3047E+00  0.1196E+02
  -3.364  0.2878E+00  0.1196E+02
  -3.354  0.2715E+00  0.1197E+02
  -3.344  0.2557E+00  0.1197E+02
  -3.334  0.2406E+00  0.1197E+02
  -3.324  0.2260E+00  0.1197E+02
  -3.314  0.2119E+00  0.1197E+02
  -3.304  0.1985E+00  0.1198E+02
