#  E (eV)   dos(E)     Int dos(E) EFermi =    6.787 eV
  -9.293  0.3024E-03  0.3024E-05
  -9.283  0.3639E-03  0.6663E-05
  -9.273  0.4373E-03  0.1104E-04
  -9.263  0.5246E-03  0.1628E-04
  -9.253  0.6283E-03  0.2256E-04
  -9.243  0.7514E-03  0.3008E-04
  -9.233  0.8970E-03  0.3905E-04
  -9.223  0.1069E-02  0.4974E-04
  -9.213  0.1272E-02  0.6246E-04
  -9.203  0.1512E-02  0.7758E-04
  -9.193  0.1793E-02  0.9551E-04
  -9.183  0.2123E-02  0.1167E-03
  -9.173  0.2510E-02  0.1418E-03
  -9.163  0.2963E-02  0.1715E-03
  -9.153  0.3492E-02  0.2064E-03
  -9.143  0.4109E-02  0.2475E-03
  -9.133  0.4827E-02  0.2958E-03
  -9.123  0.5662E-02  0.3524E-03
  -9.113  0.6630E-02  0.4187E-03
  -9.103  0.7751E-02  0.4962E-03
  -9.093  0.9047E-02  0.5867E-03
  -9.083  0.1054E-01  0.6921E-03
  -9.073  0.1227E-01  0.8148E-03
  -9.063  0.1425E-01  0.9573E-03
  -9.053  0.1653E-01  0.1123E-02
  -9.043  0.1914E-01  0.1314E-02
  -9.033  0.2212E-01  0.1535E-02
  -9.023  0.2554E-01  0.1790E-02
  -9.013  0.2943E-01  0.2085E-02
  -9.003  0.3386E-01  0.2423E-02
  -8.993  0.3890E-01  0.2812E-02
  -8.983  0.4461E-01  0.3258E-02
  -8.973  0.5108E-01  0.3769E-02
  -8.963  0.5840E-01  0.4353E-02
  -8.953  0.6667E-01  0.5020E-02
  -8.943  0.7598E-01  0.5780E-02
  -8.933  0.8645E-01  0.6644E-02
  -8.923  0.9822E-01  0.7627E-02
  -8.913  0.1114E+00  0.8741E-02
  -8.903  0.1262E+00  0.1000E-01
  -8.893  0.1427E+00  0.1143E-01
  -8.883  0.1610E+00  0.1304E-01
  -8.873  0.1815E+00  0.1485E-01
  -8.863  0.2043E+00  0.1690E-01
  -8.853  0.2295E+00  0.1919E-01
  -8.843  0.2575E+00  0.2177E-01
  -8.833  0.2884E+00  0.2465E-01
  -8.823  0.3225E+00  0.2788E-01
  -8.813  0.3600E+00  0.3148E-01
  -8.803  0.4014E+00  0.3549E-01
  -8.793  0.4467E+00  0.3996E-01
  -8.783  0.4964E+00  0.4492E-01
  -8.773  0.5508E+00  0.5043E-01
  -8.763  0.6101E+00  0.5653E-01
  -8.753  0.6748E+00  0.6328E-01
  -8.743  0.7452E+00  0.7073E-01
  -8.733  0.8216E+00  0.7895E-01
  -8.723  0.9045E+00  0.8799E-01
  -8.713  0.9941E+00  0.9793E-01
  -8.703  0.1091E+01  0.1088E+00
  -8.693  0.1195E+01  0.1208E+00
  -8.683  0.1307E+01  0.1339E+00
  -8.673  0.1428E+01  0.1481E+00
  -8.663  0.1557E+01  0.1637E+00
  -8.653  0.1696E+01  0.1807E+00
  -8.643  0.1843E+01  0.1991E+00
  -8.633  0.2001E+01  0.2191E+00
  -8.623  0.2168E+01  0.2408E+00
  -8.613  0.2346E+01  0.2642E+00
  -8.603  0.2534E+01  0.2896E+00
  -8.593  0.2733E+01  0.3169E+00
  -8.583  0.2943E+01  0.3463E+00
  -8.573  0.3164E+01  0.3780E+00
  -8.563  0.3397E+01  0.4120E+00
  -8.553  0.3641E+01  0.4484E+00
  -8.543  0.3896E+01  0.4873E+00
  -8.533  0.4163E+01  0.5290E+00
  -8.523  0.4441E+01  0.5734E+00
  -8.513  0.4730E+01  0.6207E+00
  -8.503  0.5030E+01  0.6710E+00
  -8.493  0.5340E+01  0.7244E+00
  -8.483  0.5661E+01  0.7810E+00
  -8.473  0.5991E+01  0.8409E+00
  -8.463  0.6331E+01  0.9042E+00
  -8.453  0.6679E+01  0.9710E+00
  -8.443  0.7036E+01  0.1041E+01
  -8.433  0.7400E+01  0.1115E+01
  -8.423  0.7770E+01  0.1193E+01
  -8.413  0.8146E+01  0.1275E+01
  -8.403  0.8527E+01  0.1360E+01
  -8.393  0.8912E+01  0.1449E+01
  -8.383  0.9298E+01  0.1542E+01
  -8.373  0.9687E+01  0.1639E+01
  -8.363  0.1008E+02  0.1740E+01
  -8.353  0.1046E+02  0.1844E+01
  -8.343  0.1085E+02  0.1953E+01
  -8.333  0.1123E+02  0.2065E+01
  -8.323  0.1161E+02  0.2181E+01
  -8.313  0.1198E+02  0.2301E+01
  -8.303  0.1234E+02  0.2424E+01
  -8.293  0.1269E+02  0.2551E+01
  -8.283  0.1303E+02  0.2681E+01
  -8.273  0.1336E+02  0.2815E+01
  -8.263  0.1368E+02  0.2952E+01
  -8.253  0.1398E+02  0.3092E+01
  -8.243  0.1427E+02  0.3234E+01
  -8.233  0.1453E+02  0.3380E+01
  -8.223  0.1478E+02  0.3527E+01
  -8.213  0.1501E+02  0.3678E+01
  -8.203  0.1522E+02  0.3830E+01
  -8.193  0.1541E+02  0.3984E+01
  -8.183  0.1557E+02  0.4140E+01
  -8.173  0.1571E+02  0.4297E+01
  -8.163  0.1583E+02  0.4455E+01
  -8.153  0.1592E+02  0.4614E+01
  -8.143  0.1599E+02  0.4774E+01
  -8.133  0.1603E+02  0.4934E+01
  -8.123  0.1604E+02  0.5095E+01
  -8.113  0.1603E+02  0.5255E+01
  -8.103  0.1599E+02  0.5415E+01
  -8.093  0.1593E+02  0.5574E+01
  -8.083  0.1584E+02  0.5733E+01
  -8.073  0.1573E+02  0.5890E+01
  -8.063  0.1559E+02  0.6046E+01
  -8.053  0.1543E+02  0.6200E+01
  -8.043  0.1524E+02  0.6353E+01
  -8.033  0.1503E+02  0.6503E+01
  -8.023  0.1481E+02  0.6651E+01
  -8.013  0.1456E+02  0.6796E+01
  -8.003  0.1429E+02  0.6939E+01
  -7.993  0.1400E+02  0.7079E+01
  -7.983  0.1370E+02  0.7216E+01
  -7.973  0.1338E+02  0.7350E+01
  -7.963  0.1305E+02  0.7481E+01
  -7.953  0.1271E+02  0.7608E+01
  -7.943  0.1235E+02  0.7731E+01
  -7.933  0.1199E+02  0.7851E+01
  -7.923  0.1161E+02  0.7967E+01
  -7.913  0.1123E+02  0.8080E+01
  -7.903  0.1085E+02  0.8188E+01
  -7.893  0.1046E+02  0.8293E+01
  -7.883  0.1006E+02  0.8393E+01
  -7.873  0.9671E+01  0.8490E+01
  -7.863  0.9277E+01  0.8583E+01
  -7.853  0.8885E+01  0.8672E+01
  -7.843  0.8496E+01  0.8757E+01
  -7.833  0.8110E+01  0.8838E+01
  -7.823  0.7729E+01  0.8915E+01
  -7.813  0.7354E+01  0.8989E+01
  -7.803  0.6985E+01  0.9058E+01
  -7.793  0.6624E+01  0.9125E+01
  -7.783  0.6271E+01  0.9187E+01
  -7.773  0.5927E+01  0.9247E+01
  -7.763  0.5593E+01  0.9303E+01
  -7.753  0.5269E+01  0.9355E+01
  -7.743  0.4955E+01  0.9405E+01
  -7.733  0.4653E+01  0.9451E+01
  -7.723  0.4361E+01  0.9495E+01
  -7.713  0.4081E+01  0.9536E+01
  -7.703  0.3813E+01  0.9574E+01
  -7.693  0.3556E+01  0.9609E+01
  -7.683  0.3312E+01  0.9643E+01
  -7.673  0.3078E+01  0.9673E+01
  -7.663  0.2857E+01  0.9702E+01
  -7.653  0.2647E+01  0.9728E+01
  -7.643  0.2448E+01  0.9753E+01
  -7.633  0.2261E+01  0.9775E+01
  -7.623  0.2084E+01  0.9796E+01
  -7.613  0.1918E+01  0.9815E+01
  -7.603  0.1762E+01  0.9833E+01
  -7.593  0.1617E+01  0.9849E+01
  -7.583  0.1480E+01  0.9864E+01
  -7.573  0.1353E+01  0.9878E+01
  -7.563  0.1235E+01  0.9890E+01
  -7.553  0.1125E+01  0.9901E+01
  -7.543  0.1024E+01  0.9911E+01
  -7.533  0.9297E+00  0.9921E+01
  -7.523  0.8428E+00  0.9929E+01
  -7.513  0.7628E+00  0.9937E+01
  -7.503  0.6892E+00  0.9944E+01
  -7.493  0.6217E+00  0.9950E+01
  -7.483  0.5599E+00  0.9956E+01
  -7.473  0.5033E+00  0.9961E+01
  -7.463  0.4517E+00  0.9965E+01
  -7.453  0.4047E+00  0.9969E+01
  -7.443  0.3620E+00  0.9973E+01
  -7.433  0.3233E+00  0.9976E+01
  -7.423  0.2882E+00  0.9979E+01
  -7.413  0.2565E+00  0.9981E+01
  -7.403  0.2279E+00  0.9984E+01
  -7.393  0.2021E+00  0.9986E+01
  -7.383  0.1790E+00  0.9988E+01
  -7.373  0.1582E+00  0.9989E+01
  -7.363  0.1396E+00  0.9990E+01
  -7.353  0.1230E+00  0.9992E+01
  -7.343  0.1082E+00  0.9993E+01
  -7.333  0.9500E-01  0.9994E+01
  -7.323  0.8327E-01  0.9995E+01
  -7.313  0.7287E-01  0.9995E+01
  -7.303  0.6366E-01  0.9996E+01
  -7.293  0.5552E-01  0.9997E+01
  -7.283  0.4834E-01  0.9997E+01
  -7.273  0.4202E-01  0.9997E+01
  -7.263  0.3646E-01  0.9998E+01
  -7.253  0.3158E-01  0.9998E+01
  -7.243  0.2731E-01  0.9998E+01
  -7.233  0.2358E-01  0.9999E+01
  -7.223  0.2032E-01  0.9999E+01
  -7.213  0.1749E-01  0.9999E+01
  -7.203  0.1502E-01  0.9999E+01
  -7.193  0.1288E-01  0.9999E+01
  -7.183  0.1103E-01  0.9999E+01
  -7.173  0.9424E-02  0.9999E+01
  -7.163  0.8041E-02  0.1000E+02
  -7.153  0.6849E-02  0.1000E+02
  -7.143  0.5824E-02  0.1000E+02
  -7.133  0.4945E-02  0.1000E+02
  -7.123  0.4192E-02  0.1000E+02
  -7.113  0.3548E-02  0.1000E+02
  -7.103  0.2998E-02  0.1000E+02
  -7.093  0.2530E-02  0.1000E+02
  -7.083  0.2132E-02  0.1000E+02
  -7.073  0.1794E-02  0.1000E+02
  -7.063  0.1509E-02  0.1000E+02
  -7.053  0.1268E-02  0.1000E+02
  -7.043  0.1065E-02  0.1000E+02
  -7.033  0.8949E-03  0.1000E+02
  -7.023  0.7527E-03  0.1000E+02
  -7.013  0.6344E-03  0.1000E+02
  -7.003  0.5365E-03  0.1000E+02
  -6.993  0.4562E-03  0.1000E+02
  -6.983  0.3908E-03  0.1000E+02
  -6.973  0.3384E-03  0.1000E+02
  -6.963  0.2971E-03  0.1000E+02
  -6.953  0.2655E-03  0.1000E+02
  -6.943  0.2425E-03  0.1000E+02
  -6.933  0.2271E-03  0.1000E+02
  -6.923  0.2184E-03  0.1000E+02
  -6.913  0.2160E-03  0.1000E+02
  -6.903  0.2194E-03  0.1000E+02
  -6.893  0.2283E-03  0.1000E+02
  -6.883  0.2426E-03  0.1000E+02
  -6.873  0.2621E-03  0.1000E+02
  -6.863  0.2871E-03  0.1000E+02
  -6.853  0.3175E-03  0.1000E+02
  -6.843  0.3537E-03  0.1000E+02
  -6.833  0.3960E-03  0.1000E+02
  -6.823  0.4447E-03  0.1000E+02
  -6.813  0.5005E-03  0.1000E+02
  -6.803  0.5637E-03  0.1000E+02
  -6.793  0.6351E-03  0.1000E+02
  -6.783  0.7154E-03  0.1000E+02
  -6.773  0.8054E-03  0.1000E+02
  -6.763  0.9059E-03  0.1000E+02
  -6.753  0.1018E-02  0.1000E+02
  -6.743  0.1142E-02  0.1000E+02
  -6.733  0.1281E-02  0.1000E+02
  -6.723  0.1433E-02  0.1000E+02
  -6.713  0.1602E-02  0.1000E+02
  -6.703  0.1789E-02  0.1000E+02
  -6.693  0.1994E-02  0.1000E+02
  -6.683  0.2220E-02  0.1000E+02
  -6.673  0.2467E-02  0.1000E+02
  -6.663  0.2738E-02  0.1000E+02
  -6.653  0.3035E-02  0.1000E+02
  -6.643  0.3359E-02  0.1000E+02
  -6.633  0.3712E-02  0.1000E+02
  -6.623  0.4097E-02  0.1000E+02
  -6.613  0.4515E-02  0.1000E+02
  -6.603  0.4968E-02  0.1000E+02
  -6.593  0.5460E-02  0.1000E+02
  -6.583  0.5991E-02  0.1000E+02
  -6.573  0.6565E-02  0.1000E+02
  -6.563  0.7184E-02  0.1000E+02
  -6.553  0.7850E-02  0.1000E+02
  -6.543  0.8566E-02  0.1000E+02
  -6.533  0.9335E-02  0.1000E+02
  -6.523  0.1016E-01  0.1000E+02
  -6.513  0.1104E-01  0.1000E+02
  -6.503  0.1198E-01  0.1000E+02
  -6.493  0.1298E-01  0.1000E+02
  -6.483  0.1405E-01  0.1000E+02
  -6.473  0.1519E-01  0.1000E+02
  -6.463  0.1640E-01  0.1000E+02
  -6.453  0.1768E-01  0.1000E+02
  -6.443  0.1903E-01  0.1000E+02
  -6.433  0.2046E-01  0.1000E+02
  -6.423  0.2198E-01  0.1000E+02
  -6.413  0.2357E-01  0.1000E+02
  -6.403  0.2524E-01  0.1000E+02
  -6.393  0.2701E-01  0.1000E+02
  -6.383  0.2885E-01  0.1000E+02
  -6.373  0.3079E-01  0.1000E+02
  -6.363  0.3282E-01  0.1000E+02
  -6.353  0.3493E-01  0.1000E+02
  -6.343  0.3714E-01  0.1001E+02
  -6.333  0.3944E-01  0.1001E+02
  -6.323  0.4183E-01  0.1001E+02
  -6.313  0.4432E-01  0.1001E+02
  -6.303  0.4690E-01  0.1001E+02
  -6.293  0.4957E-01  0.1001E+02
  -6.283  0.5233E-01  0.1001E+02
  -6.273  0.5519E-01  0.1001E+02
  -6.263  0.5814E-01  0.1001E+02
  -6.253  0.6117E-01  0.1001E+02
  -6.243  0.6430E-01  0.1001E+02
  -6.233  0.6751E-01  0.1001E+02
  -6.223  0.7081E-01  0.1001E+02
  -6.213  0.7419E-01  0.1001E+02
  -6.203  0.7766E-01  0.1001E+02
  -6.193  0.8120E-01  0.1001E+02
  -6.183  0.8482E-01  0.1001E+02
  -6.173  0.8851E-01  0.1002E+02
  -6.163  0.9227E-01  0.1002E+02
  -6.153  0.9610E-01  0.1002E+02
  -6.143  0.9999E-01  0.1002E+02
  -6.133  0.1039E+00  0.1002E+02
  -6.123  0.1080E+00  0.1002E+02
  -6.113  0.1120E+00  0.1002E+02
  -6.103  0.1161E+00  0.1002E+02
  -6.093  0.1203E+00  0.1002E+02
  -6.083  0.1245E+00  0.1003E+02
  -6.073  0.1288E+00  0.1003E+02
  -6.063  0.1330E+00  0.1003E+02
  -6.053  0.1374E+00  0.1003E+02
  -6.043  0.1417E+00  0.1003E+02
  -6.033  0.1461E+00  0.1003E+02
  -6.023  0.1505E+00  0.1003E+02
  -6.013  0.1549E+00  0.1004E+02
  -6.003  0.1593E+00  0.1004E+02
  -5.993  0.1637E+00  0.1004E+02
  -5.983  0.1682E+00  0.1004E+02
  -5.973  0.1726E+00  0.1004E+02
  -5.963  0.1771E+00  0.1004E+02
  -5.953  0.1815E+00  0.1005E+02
  -5.943  0.1860E+00  0.1005E+02
  -5.933  0.1904E+00  0.1005E+02
  -5.923  0.1949E+00  0.1005E+02
  -5.913  0.1993E+00  0.1005E+02
  -5.903  0.2037E+00  0.1006E+02
  -5.893  0.2081E+00  0.1006E+02
  -5.883  0.2125E+00  0.1006E+02
  -5.873  0.2169E+00  0.1006E+02
  -5.863  0.2212E+00  0.1006E+02
  -5.853  0.2256E+00  0.1007E+02
  -5.843  0.2299E+00  0.1007E+02
  -5.833  0.2342E+00  0.1007E+02
  -5.823  0.2384E+00  0.1007E+02
  -5.813  0.2427E+00  0.1008E+02
  -5.803  0.2469E+00  0.1008E+02
  -5.793  0.2511E+00  0.1008E+02
  -5.783  0.2553E+00  0.1008E+02
  -5.773  0.2595E+00  0.1009E+02
  -5.763  0.2636E+00  0.1009E+02
  -5.753  0.2677E+00  0.1009E+02
  -5.743  0.2718E+00  0.1009E+02
  -5.733  0.2759E+00  0.1010E+02
  -5.723  0.2799E+00  0.1010E+02
  -5.713  0.2839E+00  0.1010E+02
  -5.703  0.2879E+00  0.1011E+02
  -5.693  0.2919E+00  0.1011E+02
  -5.683  0.2959E+00  0.1011E+02
  -5.673  0.2998E+00  0.1011E+02
  -5.663  0.3037E+00  0.1012E+02
  -5.653  0.3077E+00  0.1012E+02
  -5.643  0.3116E+00  0.1012E+02
  -5.633  0.3154E+00  0.1013E+02
  -5.623  0.3193E+00  0.1013E+02
  -5.613  0.3231E+00  0.1013E+02
  -5.603  0.3270E+00  0.1014E+02
  -5.593  0.3308E+00  0.1014E+02
  -5.583  0.3346E+00  0.1014E+02
  -5.573  0.3384E+00  0.1015E+02
  -5.563  0.3422E+00  0.1015E+02
  -5.553  0.3460E+00  0.1015E+02
  -5.543  0.3498E+00  0.1016E+02
  -5.533  0.3536E+00  0.1016E+02
  -5.523  0.3574E+00  0.1016E+02
  -5.513  0.3612E+00  0.1017E+02
  -5.503  0.3649E+00  0.1017E+02
  -5.493  0.3687E+00  0.1017E+02
  -5.483  0.3725E+00  0.1018E+02
  -5.473  0.3762E+00  0.1018E+02
  -5.463  0.3800E+00  0.1019E+02
  -5.453  0.3838E+00  0.1019E+02
  -5.443  0.3876E+00  0.1019E+02
  -5.433  0.3914E+00  0.1020E+02
  -5.423  0.3952E+00  0.1020E+02
  -5.413  0.3990E+00  0.1021E+02
  -5.403  0.4028E+00  0.1021E+02
  -5.393  0.4066E+00  0.1021E+02
  -5.383  0.4104E+00  0.1022E+02
  -5.373  0.4142E+00  0.1022E+02
  -5.363  0.4181E+00  0.1023E+02
  -5.353  0.4219E+00  0.1023E+02
  -5.343  0.4258E+00  0.1023E+02
  -5.333  0.4297E+00  0.1024E+02
  -5.323  0.4336E+00  0.1024E+02
  -5.313  0.4375E+00  0.1025E+02
  -5.303  0.4415E+00  0.1025E+02
  -5.293  0.4454E+00  0.1026E+02
  -5.283  0.4494E+00  0.1026E+02
  -5.273  0.4534E+00  0.1027E+02
  -5.263  0.4575E+00  0.1027E+02
  -5.253  0.4615E+00  0.1027E+02
  -5.243  0.4656E+00  0.1028E+02
  -5.233  0.4697E+00  0.1028E+02
  -5.223  0.4738E+00  0.1029E+02
  -5.213  0.4780E+00  0.1029E+02
  -5.203  0.4822E+00  0.1030E+02
  -5.193  0.4864E+00  0.1030E+02
  -5.183  0.4906E+00  0.1031E+02
  -5.173  0.4949E+00  0.1031E+02
  -5.163  0.4993E+00  0.1032E+02
  -5.153  0.5036E+00  0.1032E+02
  -5.143  0.5080E+00  0.1033E+02
  -5.133  0.5125E+00  0.1033E+02
  -5.123  0.5170E+00  0.1034E+02
  -5.113  0.5215E+00  0.1034E+02
  -5.103  0.5261E+00  0.1035E+02
  -5.093  0.5307E+00  0.1035E+02
  -5.083  0.5354E+00  0.1036E+02
  -5.073  0.5401E+00  0.1036E+02
  -5.063  0.5449E+00  0.1037E+02
  -5.053  0.5498E+00  0.1038E+02
  -5.043  0.5547E+00  0.1038E+02
  -5.033  0.5596E+00  0.1039E+02
  -5.023  0.5647E+00  0.1039E+02
  -5.013  0.5698E+00  0.1040E+02
  -5.003  0.5749E+00  0.1040E+02
  -4.993  0.5802E+00  0.1041E+02
  -4.983  0.5855E+00  0.1042E+02
  -4.973  0.5909E+00  0.1042E+02
  -4.963  0.5964E+00  0.1043E+02
  -4.953  0.6020E+00  0.1043E+02
  -4.943  0.6076E+00  0.1044E+02
  -4.933  0.6133E+00  0.1045E+02
  -4.923  0.6192E+00  0.1045E+02
  -4.913  0.6251E+00  0.1046E+02
  -4.903  0.6311E+00  0.1046E+02
  -4.893  0.6373E+00  0.1047E+02
  -4.883  0.6435E+00  0.1048E+02
  -4.873  0.6498E+00  0.1048E+02
  -4.863  0.6563E+00  0.1049E+02
  -4.853  0.6628E+00  0.1050E+02
  -4.843  0.6695E+00  0.1050E+02
  -4.833  0.6763E+00  0.1051E+02
  -4.823  0.6832E+00  0.1052E+02
  -4.813  0.6902E+00  0.1052E+02
  -4.803  0.6974E+00  0.1053E+02
  -4.793  0.7047E+00  0.1054E+02
  -4.783  0.7121E+00  0.1055E+02
  -4.773  0.7196E+00  0.1055E+02
  -4.763  0.7273E+00  0.1056E+02
  -4.753  0.7350E+00  0.1057E+02
  -4.743  0.7430E+00  0.1057E+02
  -4.733  0.7510E+00  0.1058E+02
  -4.723  0.7592E+00  0.1059E+02
  -4.713  0.7675E+00  0.1060E+02
  -4.703  0.7759E+00  0.1061E+02
  -4.693  0.7844E+00  0.1061E+02
  -4.683  0.7931E+00  0.1062E+02
  -4.673  0.8019E+00  0.1063E+02
  -4.663  0.8108E+00  0.1064E+02
  -4.653  0.8198E+00  0.1065E+02
  -4.643  0.8289E+00  0.1065E+02
  -4.633  0.8381E+00  0.1066E+02
  -4.623  0.8474E+00  0.1067E+02
  -4.613  0.8568E+00  0.1068E+02
  -4.603  0.8663E+00  0.1069E+02
  -4.593  0.8759E+00  0.1070E+02
  -4.583  0.8855E+00  0.1071E+02
  -4.573  0.8952E+00  0.1071E+02
  -4.563  0.9050E+00  0.1072E+02
  -4.553  0.9148E+00  0.1073E+02
  -4.543  0.9246E+00  0.1074E+02
  -4.533  0.9345E+00  0.1075E+02
  -4.523  0.9443E+00  0.1076E+02
  -4.513  0.9542E+00  0.1077E+02
  -4.503  0.9641E+00  0.1078E+02
  -4.493  0.9740E+00  0.1079E+02
  -4.483  0.9838E+00  0.1080E+02
  -4.473  0.9936E+00  0.1081E+02
  -4.463  0.1003E+01  0.1082E+02
  -4.453  0.1013E+01  0.1083E+02
  -4.443  0.1023E+01  0.1084E+02
  -4.433  0.1032E+01  0.1085E+02
  -4.423  0.1042E+01  0.1086E+02
  -4.413  0.1051E+01  0.1087E+02
  -4.403  0.1060E+01  0.1088E+02
  -4.393  0.1069E+01  0.1089E+02
  -4.383  0.1078E+01  0.1090E+02
  -4.373  0.1087E+01  0.1091E+02
  -4.363  0.1096E+01  0.1092E+02
  -4.353  0.1104E+01  0.1094E+02
  -4.343  0.1113E+01  0.1095E+02
  -4.333  0.1121E+01  0.1096E+02
  -4.323  0.1129E+01  0.1097E+02
  -4.313  0.1137E+01  0.1098E+02
  -4.303  0.1144E+01  0.1099E+02
  -4.293  0.1152E+01  0.1100E+02
  -4.283  0.1159E+01  0.1102E+02
  -4.273  0.1166E+01  0.1103E+02
  -4.263  0.1173E+01  0.1104E+02
  -4.253  0.1179E+01  0.1105E+02
  -4.243  0.1185E+01  0.1106E+02
  -4.233  0.1191E+01  0.1107E+02
  -4.223  0.1197E+01  0.1109E+02
  -4.213  0.1203E+01  0.1110E+02
  -4.203  0.1208E+01  0.1111E+02
  -4.193  0.1213E+01  0.1112E+02
  -4.183  0.1218E+01  0.1113E+02
  -4.173  0.1223E+01  0.1115E+02
  -4.163  0.1227E+01  0.1116E+02
  -4.153  0.1231E+01  0.1117E+02
  -4.143  0.1235E+01  0.1118E+02
  -4.133  0.1238E+01  0.1120E+02
  -4.123  0.1242E+01  0.1121E+02
  -4.113  0.1245E+01  0.1122E+02
  -4.103  0.1248E+01  0.1123E+02
  -4.093  0.1250E+01  0.1125E+02
  -4.083  0.1253E+01  0.1126E+02
  -4.073  0.1255E+01  0.1127E+02
  -4.063  0.1256E+01  0.1128E+02
  -4.053  0.1258E+01  0.1130E+02
  -4.043  0.1259E+01  0.1131E+02
  -4.033  0.1260E+01  0.1132E+02
  -4.023  0.1260E+01  0.1133E+02
  -4.013  0.1261E+01  0.1135E+02
  -4.003  0.1261E+01  0.1136E+02
  -3.993  0.1260E+01  0.1137E+02
  -3.983  0.1259E+01  0.1138E+02
  -3.973  0.1258E+01  0.1140E+02
  -3.963  0.1257E+01  0.1141E+02
  -3.953  0.1255E+01  0.1142E+02
  -3.943  0.1253E+01  0.1143E+02
  -3.933  0.1250E+01  0.1145E+02
  -3.923  0.1247E+01  0.1146E+02
  -3.913  0.1244E+01  0.1147E+02
  -3.903  0.1240E+01  0.1148E+02
  -3.893  0.1235E+01  0.1150E+02
  -3.883  0.1231E+01  0.1151E+02
  -3.873  0.1225E+01  0.1152E+02
  -3.863  0.1219E+01  0.1153E+02
  -3.853  0.1213E+01  0.1155E+02
  -3.843  0.1206E+01  0.1156E+02
  -3.833  0.1199E+01  0.1157E+02
  -3.823  0.1190E+01  0.1158E+02
  -3.813  0.1182E+01  0.1159E+02
  -3.803  0.1173E+01  0.1161E+02
  -3.793  0.1163E+01  0.1162E+02
  -3.783  0.1152E+01  0.1163E+02
  -3.773  0.1141E+01  0.1164E+02
  -3.763  0.1129E+01  0.1165E+02
  -3.753  0.1117E+01  0.1166E+02
  -3.743  0.1104E+01  0.1167E+02
  -3.733  0.1091E+01  0.1168E+02
  -3.723  0.1076E+01  0.1169E+02
  -3.713  0.1062E+01  0.1171E+02
  -3.703  0.1046E+01  0.1172E+02
  -3.693  0.1030E+01  0.1173E+02
  -3.683  0.1013E+01  0.1174E+02
  -3.673  0.9962E+00  0.1175E+02
  -3.663  0.9784E+00  0.1176E+02
  -3.653  0.9601E+00  0.1177E+02
  -3.643  0.9413E+00  0.1178E+02
  -3.633  0.9220E+00  0.1178E+02
  -3.623  0.9023E+00  0.1179E+02
  -3.613  0.8821E+00  0.1180E+02
  -3.603  0.8615E+00  0.1181E+02
  -3.593  0.8405E+00  0.1182E+02
  -3.583  0.8192E+00  0.1183E+02
  -3.573  0.7976E+00  0.1184E+02
  -3.563  0.7758E+00  0.1184E+02
  -3.553  0.7537E+00  0.1185E+02
  -3.543  0.7315E+00  0.1186E+02
  -3.533  0.7091E+00  0.1187E+02
  -3.523  0.6867E+00  0.1187E+02
  -3.513  0.6642E+00  0.1188E+02
  -3.503  0.6416E+00  0.1188E+02
  -3.493  0.6192E+00  0.1189E+02
  -3.483  0.5967E+00  0.1190E+02
  -3.473  0.5745E+00  0.1190E+02
  -3.463  0.5523E+00  0.1191E+02
  -3.453  0.5304E+00  0.1191E+02
  -3.443  0.5087E+00  0.1192E+02
  -3.433  0.4872E+00  0.1192E+02
  -3.423  0.4661E+00  0.1193E+02
  -3.413  0.4453E+00  0.1193E+02
  -3.403  0.4249E+00  0.1194E+02
  -3.393  0.4049E+00  0.1194E+02
  -3.383  0.3854E+00  0.1194E+02
  -3.373  0.3663E+00  0.1195E+02
  -3.363  0.3476E+00  0.1195E+02
  -3.353  0.3295E+00  0.1196E+02
  -3.343  0.3119E+00  0.1196E+02
  -3.333  0.2948E+00  0.1196E+02
  -3.323  0.2783E+00  0.1196E+02
  -3.313  0.2623E+00  0.1197E+02
  -3.303  0.2469E+00  0.1197E+02
  -3.293  0.2321E+00  0.1197E+02
  -3.283  0.2179E+00  0.1197E+02
  -3.273  0.2042E+00  0.1198E+02
  -3.263  0.1912E+00  0.1198E+02
