#  E (eV)   dos(E)     Int dos(E) EFermi =    5.956 eV
  -6.234  0.5024E-06  0.5024E-08
  -6.224  0.8029E-06  0.1305E-07
  -6.214  0.1270E-05  0.2575E-07
  -6.204  0.1989E-05  0.4565E-07
  -6.194  0.3084E-05  0.7649E-07
  -6.184  0.4734E-05  0.1238E-06
  -6.174  0.7194E-05  0.1958E-06
  -6.164  0.1082E-04  0.3040E-06
  -6.154  0.1612E-04  0.4652E-06
  -6.144  0.2378E-04  0.7030E-06
  -6.134  0.3473E-04  0.1050E-05
  -6.124  0.5022E-04  0.1552E-05
  -6.114  0.7192E-04  0.2272E-05
  -6.104  0.1020E-03  0.3291E-05
  -6.094  0.1432E-03  0.4724E-05
  -6.084  0.1992E-03  0.6716E-05
  -6.074  0.2744E-03  0.9460E-05
  -6.064  0.3745E-03  0.1320E-04
  -6.054  0.5061E-03  0.1827E-04
  -6.044  0.6777E-03  0.2504E-04
  -6.034  0.8989E-03  0.3403E-04
  -6.024  0.1181E-02  0.4585E-04
  -6.014  0.1538E-02  0.6123E-04
  -6.004  0.1985E-02  0.8108E-04
  -5.994  0.2538E-02  0.1065E-03
  -5.984  0.3217E-02  0.1386E-03
  -5.974  0.4040E-02  0.1790E-03
  -5.964  0.5031E-02  0.2293E-03
  -5.954  0.6210E-02  0.2914E-03
  -5.944  0.7601E-02  0.3675E-03
  -5.934  0.9225E-02  0.4597E-03
  -5.924  0.1110E-01  0.5707E-03
  -5.914  0.1325E-01  0.7033E-03
  -5.904  0.1570E-01  0.8603E-03
  -5.894  0.1844E-01  0.1045E-02
  -5.884  0.2150E-01  0.1260E-02
  -5.874  0.2488E-01  0.1509E-02
  -5.864  0.2858E-01  0.1794E-02
  -5.854  0.3259E-01  0.2120E-02
  -5.844  0.3691E-01  0.2489E-02
  -5.834  0.4151E-01  0.2905E-02
  -5.824  0.4638E-01  0.3368E-02
  -5.814  0.5150E-01  0.3883E-02
  -5.804  0.5683E-01  0.4452E-02
  -5.794  0.6234E-01  0.5075E-02
  -5.784  0.6800E-01  0.5755E-02
  -5.774  0.7378E-01  0.6493E-02
  -5.764  0.7963E-01  0.7289E-02
  -5.754  0.8554E-01  0.8145E-02
  -5.744  0.9145E-01  0.9059E-02
  -5.734  0.9735E-01  0.1003E-01
  -5.724  0.1032E+00  0.1106E-01
  -5.714  0.1090E+00  0.1215E-01
  -5.704  0.1147E+00  0.1330E-01
  -5.694  0.1203E+00  0.1450E-01
  -5.684  0.1257E+00  0.1576E-01
  -5.674  0.1310E+00  0.1707E-01
  -5.664  0.1362E+00  0.1843E-01
  -5.654  0.1412E+00  0.1984E-01
  -5.644  0.1461E+00  0.2131E-01
  -5.634  0.1508E+00  0.2281E-01
  -5.624  0.1554E+00  0.2437E-01
  -5.614  0.1598E+00  0.2597E-01
  -5.604  0.1642E+00  0.2761E-01
  -5.594  0.1684E+00  0.2929E-01
  -5.584  0.1725E+00  0.3102E-01
  -5.574  0.1765E+00  0.3278E-01
  -5.564  0.1805E+00  0.3459E-01
  -5.554  0.1844E+00  0.3643E-01
  -5.544  0.1883E+00  0.3831E-01
  -5.534  0.1920E+00  0.4023E-01
  -5.524  0.1958E+00  0.4219E-01
  -5.514  0.1994E+00  0.4419E-01
  -5.504  0.2030E+00  0.4622E-01
  -5.494  0.2065E+00  0.4828E-01
  -5.484  0.2099E+00  0.5038E-01
  -5.474  0.2132E+00  0.5251E-01
  -5.464  0.2164E+00  0.5468E-01
  -5.454  0.2195E+00  0.5687E-01
  -5.444  0.2225E+00  0.5910E-01
  -5.434  0.2254E+00  0.6135E-01
  -5.424  0.2283E+00  0.6363E-01
  -5.414  0.2310E+00  0.6594E-01
  -5.404  0.2338E+00  0.6828E-01
  -5.394  0.2366E+00  0.7065E-01
  -5.384  0.2394E+00  0.7304E-01
  -5.374  0.2423E+00  0.7547E-01
  -5.364  0.2453E+00  0.7792E-01
  -5.354  0.2484E+00  0.8040E-01
  -5.344  0.2515E+00  0.8292E-01
  -5.334  0.2547E+00  0.8546E-01
  -5.324  0.2580E+00  0.8804E-01
  -5.314  0.2613E+00  0.9066E-01
  -5.304  0.2646E+00  0.9330E-01
  -5.294  0.2678E+00  0.9598E-01
  -5.284  0.2709E+00  0.9869E-01
  -5.274  0.2739E+00  0.1014E+00
  -5.264  0.2767E+00  0.1042E+00
  -5.254  0.2793E+00  0.1070E+00
  -5.244  0.2817E+00  0.1098E+00
  -5.234  0.2839E+00  0.1126E+00
  -5.224  0.2859E+00  0.1155E+00
  -5.214  0.2878E+00  0.1184E+00
  -5.204  0.2895E+00  0.1213E+00
  -5.194  0.2912E+00  0.1242E+00
  -5.184  0.2930E+00  0.1271E+00
  -5.174  0.2947E+00  0.1301E+00
  -5.164  0.2967E+00  0.1330E+00
  -5.154  0.2988E+00  0.1360E+00
  -5.144  0.3011E+00  0.1390E+00
  -5.134  0.3037E+00  0.1421E+00
  -5.124  0.3066E+00  0.1451E+00
  -5.114  0.3096E+00  0.1482E+00
  -5.104  0.3130E+00  0.1514E+00
  -5.094  0.3165E+00  0.1545E+00
  -5.084  0.3201E+00  0.1577E+00
  -5.074  0.3238E+00  0.1610E+00
  -5.064  0.3275E+00  0.1642E+00
  -5.054  0.3310E+00  0.1676E+00
  -5.044  0.3345E+00  0.1709E+00
  -5.034  0.3377E+00  0.1743E+00
  -5.024  0.3406E+00  0.1777E+00
  -5.014  0.3431E+00  0.1811E+00
  -5.004  0.3453E+00  0.1846E+00
  -4.994  0.3472E+00  0.1880E+00
  -4.984  0.3487E+00  0.1915E+00
  -4.974  0.3498E+00  0.1950E+00
  -4.964  0.3507E+00  0.1985E+00
  -4.954  0.3513E+00  0.2020E+00
  -4.944  0.3519E+00  0.2056E+00
  -4.934  0.3524E+00  0.2091E+00
  -4.924  0.3530E+00  0.2126E+00
  -4.914  0.3537E+00  0.2161E+00
  -4.904  0.3547E+00  0.2197E+00
  -4.894  0.3561E+00  0.2233E+00
  -4.884  0.3579E+00  0.2268E+00
  -4.874  0.3602E+00  0.2304E+00
  -4.864  0.3630E+00  0.2341E+00
  -4.854  0.3662E+00  0.2377E+00
  -4.844  0.3699E+00  0.2414E+00
  -4.834  0.3741E+00  0.2452E+00
  -4.824  0.3785E+00  0.2490E+00
  -4.814  0.3831E+00  0.2528E+00
  -4.804  0.3879E+00  0.2567E+00
  -4.794  0.3926E+00  0.2606E+00
  -4.784  0.3972E+00  0.2646E+00
  -4.774  0.4015E+00  0.2686E+00
  -4.764  0.4054E+00  0.2726E+00
  -4.754  0.4089E+00  0.2767E+00
  -4.744  0.4118E+00  0.2808E+00
  -4.734  0.4141E+00  0.2850E+00
  -4.724  0.4159E+00  0.2891E+00
  -4.714  0.4170E+00  0.2933E+00
  -4.704  0.4176E+00  0.2975E+00
  -4.694  0.4177E+00  0.3017E+00
  -4.684  0.4174E+00  0.3058E+00
  -4.674  0.4169E+00  0.3100E+00
  -4.664  0.4161E+00  0.3142E+00
  -4.654  0.4154E+00  0.3183E+00
  -4.644  0.4147E+00  0.3225E+00
  -4.634  0.4143E+00  0.3266E+00
  -4.624  0.4142E+00  0.3308E+00
  -4.614  0.4147E+00  0.3349E+00
  -4.604  0.4157E+00  0.3391E+00
  -4.594  0.4173E+00  0.3432E+00
  -4.584  0.4197E+00  0.3474E+00
  -4.574  0.4228E+00  0.3517E+00
  -4.564  0.4266E+00  0.3559E+00
  -4.554  0.4310E+00  0.3602E+00
  -4.544  0.4360E+00  0.3646E+00
  -4.534  0.4415E+00  0.3690E+00
  -4.524  0.4473E+00  0.3735E+00
  -4.514  0.4533E+00  0.3780E+00
  -4.504  0.4592E+00  0.3826E+00
  -4.494  0.4651E+00  0.3873E+00
  -4.484  0.4706E+00  0.3920E+00
  -4.474  0.4757E+00  0.3967E+00
  -4.464  0.4802E+00  0.4015E+00
  -4.454  0.4841E+00  0.4064E+00
  -4.444  0.4872E+00  0.4112E+00
  -4.434  0.4895E+00  0.4161E+00
  -4.424  0.4911E+00  0.4210E+00
  -4.414  0.4921E+00  0.4260E+00
  -4.404  0.4924E+00  0.4309E+00
  -4.394  0.4921E+00  0.4358E+00
  -4.384  0.4915E+00  0.4407E+00
  -4.374  0.4905E+00  0.4456E+00
  -4.364  0.4895E+00  0.4505E+00
  -4.354  0.4884E+00  0.4554E+00
  -4.344  0.4874E+00  0.4603E+00
  -4.334  0.4866E+00  0.4651E+00
  -4.324  0.4861E+00  0.4700E+00
  -4.314  0.4860E+00  0.4749E+00
  -4.304  0.4864E+00  0.4797E+00
  -4.294  0.4874E+00  0.4846E+00
  -4.284  0.4888E+00  0.4895E+00
  -4.274  0.4909E+00  0.4944E+00
  -4.264  0.4936E+00  0.4993E+00
  -4.254  0.4968E+00  0.5043E+00
  -4.244  0.5007E+00  0.5093E+00
  -4.234  0.5052E+00  0.5144E+00
  -4.224  0.5101E+00  0.5195E+00
  -4.214  0.5156E+00  0.5246E+00
  -4.204  0.5215E+00  0.5298E+00
  -4.194  0.5277E+00  0.5351E+00
  -4.184  0.5342E+00  0.5405E+00
  -4.174  0.5408E+00  0.5459E+00
  -4.164  0.5474E+00  0.5513E+00
  -4.154  0.5538E+00  0.5569E+00
  -4.144  0.5601E+00  0.5625E+00
  -4.134  0.5660E+00  0.5681E+00
  -4.124  0.5714E+00  0.5738E+00
  -4.114  0.5762E+00  0.5796E+00
  -4.104  0.5803E+00  0.5854E+00
  -4.094  0.5838E+00  0.5912E+00
  -4.084  0.5864E+00  0.5971E+00
  -4.074  0.5884E+00  0.6030E+00
  -4.064  0.5895E+00  0.6089E+00
  -4.054  0.5900E+00  0.6148E+00
  -4.044  0.5899E+00  0.6207E+00
  -4.034  0.5892E+00  0.6266E+00
  -4.024  0.5882E+00  0.6325E+00
  -4.014  0.5868E+00  0.6383E+00
  -4.004  0.5853E+00  0.6442E+00
  -3.994  0.5838E+00  0.6500E+00
  -3.984  0.5824E+00  0.6558E+00
  -3.974  0.5814E+00  0.6617E+00
  -3.964  0.5808E+00  0.6675E+00
  -3.954  0.5808E+00  0.6733E+00
  -3.944  0.5815E+00  0.6791E+00
  -3.934  0.5830E+00  0.6849E+00
  -3.924  0.5855E+00  0.6908E+00
  -3.914  0.5889E+00  0.6967E+00
  -3.904  0.5935E+00  0.7026E+00
  -3.894  0.5991E+00  0.7086E+00
  -3.884  0.6057E+00  0.7146E+00
  -3.874  0.6134E+00  0.7208E+00
  -3.864  0.6220E+00  0.7270E+00
  -3.854  0.6315E+00  0.7333E+00
  -3.844  0.6417E+00  0.7397E+00
  -3.834  0.6523E+00  0.7463E+00
  -3.824  0.6634E+00  0.7529E+00
  -3.814  0.6746E+00  0.7596E+00
  -3.804  0.6858E+00  0.7665E+00
  -3.794  0.6967E+00  0.7735E+00
  -3.784  0.7072E+00  0.7805E+00
  -3.774  0.7171E+00  0.7877E+00
  -3.764  0.7263E+00  0.7950E+00
  -3.754  0.7345E+00  0.8023E+00
  -3.744  0.7418E+00  0.8097E+00
  -3.734  0.7480E+00  0.8172E+00
  -3.724  0.7531E+00  0.8247E+00
  -3.714  0.7573E+00  0.8323E+00
  -3.704  0.7604E+00  0.8399E+00
  -3.694  0.7626E+00  0.8475E+00
  -3.684  0.7641E+00  0.8552E+00
  -3.674  0.7649E+00  0.8628E+00
  -3.664  0.7653E+00  0.8705E+00
  -3.654  0.7655E+00  0.8781E+00
  -3.644  0.7656E+00  0.8858E+00
  -3.634  0.7660E+00  0.8935E+00
  -3.624  0.7667E+00  0.9011E+00
  -3.614  0.7681E+00  0.9088E+00
  -3.604  0.7703E+00  0.9165E+00
  -3.594  0.7736E+00  0.9242E+00
  -3.584  0.7781E+00  0.9320E+00
  -3.574  0.7838E+00  0.9399E+00
  -3.564  0.7909E+00  0.9478E+00
  -3.554  0.7993E+00  0.9558E+00
  -3.544  0.8090E+00  0.9639E+00
  -3.534  0.8197E+00  0.9721E+00
  -3.524  0.8314E+00  0.9804E+00
  -3.514  0.8437E+00  0.9888E+00
  -3.504  0.8562E+00  0.9974E+00
  -3.494  0.8687E+00  0.1006E+01
  -3.484  0.8807E+00  0.1015E+01
  -3.474  0.8919E+00  0.1024E+01
  -3.464  0.9018E+00  0.1033E+01
  -3.454  0.9101E+00  0.1042E+01
  -3.444  0.9166E+00  0.1051E+01
  -3.434  0.9208E+00  0.1060E+01
  -3.424  0.9228E+00  0.1070E+01
  -3.414  0.9224E+00  0.1079E+01
  -3.404  0.9197E+00  0.1088E+01
  -3.394  0.9148E+00  0.1097E+01
  -3.384  0.9077E+00  0.1106E+01
  -3.374  0.8989E+00  0.1115E+01
  -3.364  0.8885E+00  0.1124E+01
  -3.354  0.8770E+00  0.1133E+01
  -3.344  0.8647E+00  0.1141E+01
  -3.334  0.8520E+00  0.1150E+01
  -3.324  0.8393E+00  0.1158E+01
  -3.314  0.8268E+00  0.1167E+01
  -3.304  0.8150E+00  0.1175E+01
  -3.294  0.8041E+00  0.1183E+01
  -3.284  0.7944E+00  0.1191E+01
  -3.274  0.7860E+00  0.1199E+01
  -3.264  0.7791E+00  0.1206E+01
  -3.254  0.7738E+00  0.1214E+01
  -3.244  0.7701E+00  0.1222E+01
  -3.234  0.7680E+00  0.1230E+01
  -3.224  0.7675E+00  0.1237E+01
  -3.214  0.7683E+00  0.1245E+01
  -3.204  0.7705E+00  0.1253E+01
  -3.194  0.7737E+00  0.1260E+01
  -3.184  0.7777E+00  0.1268E+01
  -3.174  0.7823E+00  0.1276E+01
  -3.164  0.7872E+00  0.1284E+01
  -3.154  0.7919E+00  0.1292E+01
  -3.144  0.7963E+00  0.1300E+01
  -3.134  0.8001E+00  0.1308E+01
  -3.124  0.8028E+00  0.1316E+01
  -3.114  0.8044E+00  0.1324E+01
  -3.104  0.8047E+00  0.1332E+01
  -3.094  0.8034E+00  0.1340E+01
  -3.084  0.8006E+00  0.1348E+01
  -3.074  0.7962E+00  0.1356E+01
  -3.064  0.7904E+00  0.1364E+01
  -3.054  0.7832E+00  0.1372E+01
  -3.044  0.7749E+00  0.1379E+01
  -3.034  0.7656E+00  0.1387E+01
  -3.024  0.7557E+00  0.1395E+01
  -3.014  0.7454E+00  0.1402E+01
  -3.004  0.7349E+00  0.1409E+01
  -2.994  0.7245E+00  0.1417E+01
  -2.984  0.7145E+00  0.1424E+01
  -2.974  0.7051E+00  0.1431E+01
  -2.964  0.6964E+00  0.1438E+01
  -2.954  0.6886E+00  0.1445E+01
  -2.944  0.6818E+00  0.1451E+01
  -2.934  0.6761E+00  0.1458E+01
  -2.924  0.6714E+00  0.1465E+01
  -2.914  0.6678E+00  0.1472E+01
  -2.904  0.6652E+00  0.1478E+01
  -2.894  0.6636E+00  0.1485E+01
  -2.884  0.6629E+00  0.1491E+01
  -2.874  0.6630E+00  0.1498E+01
  -2.864  0.6636E+00  0.1505E+01
  -2.854  0.6648E+00  0.1511E+01
  -2.844  0.6663E+00  0.1518E+01
  -2.834  0.6680E+00  0.1525E+01
  -2.824  0.6696E+00  0.1531E+01
  -2.814  0.6711E+00  0.1538E+01
  -2.804  0.6721E+00  0.1545E+01
  -2.794  0.6727E+00  0.1552E+01
  -2.784  0.6725E+00  0.1558E+01
  -2.774  0.6716E+00  0.1565E+01
  -2.764  0.6697E+00  0.1572E+01
  -2.754  0.6669E+00  0.1578E+01
  -2.744  0.6631E+00  0.1585E+01
  -2.734  0.6584E+00  0.1592E+01
  -2.724  0.6527E+00  0.1598E+01
  -2.714  0.6462E+00  0.1605E+01
  -2.704  0.6389E+00  0.1611E+01
  -2.694  0.6311E+00  0.1617E+01
  -2.684  0.6227E+00  0.1624E+01
  -2.674  0.6142E+00  0.1630E+01
  -2.664  0.6055E+00  0.1636E+01
  -2.654  0.5969E+00  0.1642E+01
  -2.644  0.5886E+00  0.1648E+01
  -2.634  0.5807E+00  0.1653E+01
  -2.624  0.5734E+00  0.1659E+01
  -2.614  0.5668E+00  0.1665E+01
  -2.604  0.5609E+00  0.1670E+01
  -2.594  0.5559E+00  0.1676E+01
  -2.584  0.5518E+00  0.1681E+01
  -2.574  0.5486E+00  0.1687E+01
  -2.564  0.5463E+00  0.1692E+01
  -2.554  0.5448E+00  0.1698E+01
  -2.544  0.5440E+00  0.1703E+01
  -2.534  0.5439E+00  0.1709E+01
  -2.524  0.5442E+00  0.1714E+01
  -2.514  0.5448E+00  0.1720E+01
  -2.504  0.5456E+00  0.1725E+01
  -2.494  0.5463E+00  0.1731E+01
  -2.484  0.5467E+00  0.1736E+01
  -2.474  0.5468E+00  0.1742E+01
  -2.464  0.5464E+00  0.1747E+01
  -2.454  0.5452E+00  0.1752E+01
  -2.444  0.5433E+00  0.1758E+01
  -2.434  0.5404E+00  0.1763E+01
  -2.424  0.5367E+00  0.1769E+01
  -2.414  0.5321E+00  0.1774E+01
  -2.404  0.5266E+00  0.1779E+01
  -2.394  0.5202E+00  0.1784E+01
  -2.384  0.5132E+00  0.1790E+01
  -2.374  0.5055E+00  0.1795E+01
  -2.364  0.4974E+00  0.1800E+01
  -2.354  0.4889E+00  0.1804E+01
  -2.344  0.4804E+00  0.1809E+01
  -2.334  0.4717E+00  0.1814E+01
  -2.324  0.4633E+00  0.1819E+01
  -2.314  0.4551E+00  0.1823E+01
  -2.304  0.4473E+00  0.1828E+01
  -2.294  0.4400E+00  0.1832E+01
  -2.284  0.4332E+00  0.1836E+01
  -2.274  0.4272E+00  0.1841E+01
  -2.264  0.4217E+00  0.1845E+01
  -2.254  0.4170E+00  0.1849E+01
  -2.244  0.4130E+00  0.1853E+01
  -2.234  0.4097E+00  0.1857E+01
  -2.224  0.4069E+00  0.1861E+01
  -2.214  0.4047E+00  0.1865E+01
  -2.204  0.4030E+00  0.1869E+01
  -2.194  0.4016E+00  0.1873E+01
  -2.184  0.4004E+00  0.1877E+01
  -2.174  0.3993E+00  0.1881E+01
  -2.164  0.3982E+00  0.1885E+01
  -2.154  0.3970E+00  0.1889E+01
  -2.144  0.3954E+00  0.1893E+01
  -2.134  0.3935E+00  0.1897E+01
  -2.124  0.3911E+00  0.1901E+01
  -2.114  0.3882E+00  0.1905E+01
  -2.104  0.3846E+00  0.1909E+01
  -2.094  0.3804E+00  0.1913E+01
  -2.084  0.3755E+00  0.1916E+01
  -2.074  0.3699E+00  0.1920E+01
  -2.064  0.3636E+00  0.1924E+01
  -2.054  0.3567E+00  0.1927E+01
  -2.044  0.3492E+00  0.1931E+01
  -2.034  0.3410E+00  0.1934E+01
  -2.024  0.3324E+00  0.1938E+01
  -2.014  0.3233E+00  0.1941E+01
  -2.004  0.3137E+00  0.1944E+01
  -1.994  0.3038E+00  0.1947E+01
  -1.984  0.2936E+00  0.1950E+01
  -1.974  0.2832E+00  0.1953E+01
  -1.964  0.2725E+00  0.1955E+01
  -1.954  0.2619E+00  0.1958E+01
  -1.944  0.2512E+00  0.1961E+01
  -1.934  0.2406E+00  0.1963E+01
  -1.924  0.2302E+00  0.1965E+01
  -1.914  0.2200E+00  0.1968E+01
  -1.904  0.2103E+00  0.1970E+01
  -1.894  0.2010E+00  0.1972E+01
  -1.884  0.1924E+00  0.1974E+01
  -1.874  0.1843E+00  0.1975E+01
  -1.864  0.1770E+00  0.1977E+01
  -1.854  0.1704E+00  0.1979E+01
  -1.844  0.1647E+00  0.1981E+01
  -1.834  0.1597E+00  0.1982E+01
  -1.824  0.1556E+00  0.1984E+01
  -1.814  0.1522E+00  0.1985E+01
  -1.804  0.1495E+00  0.1987E+01
  -1.794  0.1476E+00  0.1988E+01
  -1.784  0.1462E+00  0.1990E+01
  -1.774  0.1453E+00  0.1991E+01
  -1.764  0.1447E+00  0.1993E+01
  -1.754  0.1445E+00  0.1994E+01
  -1.744  0.1444E+00  0.1995E+01
  -1.734  0.1443E+00  0.1997E+01
  -1.724  0.1442E+00  0.1998E+01
  -1.714  0.1439E+00  0.2000E+01
  -1.704  0.1435E+00  0.2001E+01
  -1.694  0.1427E+00  0.2003E+01
  -1.684  0.1416E+00  0.2004E+01
  -1.674  0.1401E+00  0.2005E+01
  -1.664  0.1383E+00  0.2007E+01
  -1.654  0.1362E+00  0.2008E+01
  -1.644  0.1338E+00  0.2010E+01
  -1.634  0.1313E+00  0.2011E+01
  -1.624  0.1286E+00  0.2012E+01
  -1.614  0.1260E+00  0.2013E+01
  -1.604  0.1236E+00  0.2015E+01
  -1.594  0.1215E+00  0.2016E+01
  -1.584  0.1200E+00  0.2017E+01
  -1.574  0.1191E+00  0.2018E+01
  -1.564  0.1192E+00  0.2019E+01
  -1.554  0.1202E+00  0.2021E+01
  -1.544  0.1225E+00  0.2022E+01
  -1.534  0.1261E+00  0.2023E+01
  -1.524  0.1312E+00  0.2024E+01
  -1.514  0.1378E+00  0.2026E+01
  -1.504  0.1459E+00  0.2027E+01
  -1.494  0.1557E+00  0.2029E+01
  -1.484  0.1669E+00  0.2030E+01
  -1.474  0.1796E+00  0.2032E+01
  -1.464  0.1935E+00  0.2034E+01
  -1.454  0.2085E+00  0.2036E+01
  -1.444  0.2242E+00  0.2039E+01
  -1.434  0.2405E+00  0.2041E+01
  -1.424  0.2569E+00  0.2043E+01
  -1.414  0.2732E+00  0.2046E+01
  -1.404  0.2890E+00  0.2049E+01
  -1.394  0.3040E+00  0.2052E+01
  -1.384  0.3178E+00  0.2055E+01
  -1.374  0.3301E+00  0.2059E+01
  -1.364  0.3408E+00  0.2062E+01
  -1.354  0.3496E+00  0.2066E+01
  -1.344  0.3564E+00  0.2069E+01
  -1.334  0.3612E+00  0.2073E+01
  -1.324  0.3640E+00  0.2076E+01
  -1.314  0.3648E+00  0.2080E+01
  -1.304  0.3640E+00  0.2084E+01
  -1.294  0.3616E+00  0.2087E+01
  -1.284  0.3580E+00  0.2091E+01
  -1.274  0.3536E+00  0.2094E+01
  -1.264  0.3486E+00  0.2098E+01
  -1.254  0.3435E+00  0.2101E+01
  -1.244  0.3387E+00  0.2105E+01
  -1.234  0.3344E+00  0.2108E+01
  -1.224  0.3312E+00  0.2111E+01
  -1.214  0.3293E+00  0.2115E+01
  -1.204  0.3291E+00  0.2118E+01
  -1.194  0.3307E+00  0.2121E+01
  -1.184  0.3345E+00  0.2125E+01
  -1.174  0.3404E+00  0.2128E+01
  -1.164  0.3486E+00  0.2131E+01
  -1.154  0.3592E+00  0.2135E+01
  -1.144  0.3720E+00  0.2139E+01
  -1.134  0.3870E+00  0.2143E+01
  -1.124  0.4039E+00  0.2147E+01
  -1.114  0.4225E+00  0.2151E+01
  -1.104  0.4426E+00  0.2155E+01
  -1.094  0.4636E+00  0.2160E+01
  -1.084  0.4854E+00  0.2165E+01
  -1.074  0.5074E+00  0.2170E+01
  -1.064  0.5294E+00  0.2175E+01
  -1.054  0.5508E+00  0.2181E+01
  -1.044  0.5715E+00  0.2186E+01
  -1.034  0.5912E+00  0.2192E+01
  -1.024  0.6097E+00  0.2198E+01
  -1.014  0.6269E+00  0.2205E+01
  -1.004  0.6428E+00  0.2211E+01
  -0.994  0.6576E+00  0.2218E+01
  -0.984  0.6714E+00  0.2224E+01
  -0.974  0.6845E+00  0.2231E+01
  -0.964  0.6975E+00  0.2238E+01
  -0.954  0.7106E+00  0.2245E+01
  -0.944  0.7244E+00  0.2253E+01
  -0.934  0.7395E+00  0.2260E+01
  -0.924  0.7562E+00  0.2268E+01
  -0.914  0.7751E+00  0.2275E+01
  -0.904  0.7965E+00  0.2283E+01
  -0.894  0.8208E+00  0.2291E+01
  -0.884  0.8480E+00  0.2300E+01
  -0.874  0.8783E+00  0.2309E+01
  -0.864  0.9115E+00  0.2318E+01
  -0.854  0.9476E+00  0.2327E+01
  -0.844  0.9859E+00  0.2337E+01
  -0.834  0.1026E+01  0.2347E+01
  -0.824  0.1068E+01  0.2358E+01
  -0.814  0.1110E+01  0.2369E+01
  -0.804  0.1152E+01  0.2381E+01
  -0.794  0.1193E+01  0.2393E+01
  -0.784  0.1232E+01  0.2405E+01
  -0.774  0.1269E+01  0.2418E+01
  -0.764  0.1302E+01  0.2431E+01
  -0.754  0.1332E+01  0.2444E+01
  -0.744  0.1357E+01  0.2458E+01
  -0.734  0.1376E+01  0.2471E+01
  -0.724  0.1391E+01  0.2485E+01
  -0.714  0.1399E+01  0.2499E+01
  -0.704  0.1402E+01  0.2513E+01
  -0.694  0.1400E+01  0.2527E+01
  -0.684  0.1392E+01  0.2541E+01
  -0.674  0.1378E+01  0.2555E+01
  -0.664  0.1361E+01  0.2569E+01
  -0.654  0.1339E+01  0.2582E+01
  -0.644  0.1313E+01  0.2595E+01
  -0.634  0.1285E+01  0.2608E+01
  -0.624  0.1254E+01  0.2620E+01
  -0.614  0.1222E+01  0.2633E+01
  -0.604  0.1188E+01  0.2645E+01
  -0.594  0.1154E+01  0.2656E+01
  -0.584  0.1120E+01  0.2667E+01
  -0.574  0.1087E+01  0.2678E+01
  -0.564  0.1055E+01  0.2689E+01
  -0.554  0.1024E+01  0.2699E+01
  -0.544  0.9957E+00  0.2709E+01
  -0.534  0.9693E+00  0.2719E+01
  -0.524  0.9451E+00  0.2728E+01
  -0.514  0.9233E+00  0.2737E+01
  -0.504  0.9040E+00  0.2746E+01
  -0.494  0.8871E+00  0.2755E+01
  -0.484  0.8724E+00  0.2764E+01
  -0.474  0.8598E+00  0.2773E+01
  -0.464  0.8490E+00  0.2781E+01
  -0.454  0.8398E+00  0.2789E+01
  -0.444  0.8319E+00  0.2798E+01
  -0.434  0.8249E+00  0.2806E+01
  -0.424  0.8186E+00  0.2814E+01
  -0.414  0.8127E+00  0.2822E+01
  -0.404  0.8070E+00  0.2830E+01
  -0.394  0.8011E+00  0.2838E+01
  -0.384  0.7951E+00  0.2846E+01
  -0.374  0.7887E+00  0.2854E+01
  -0.364  0.7820E+00  0.2862E+01
  -0.354  0.7747E+00  0.2870E+01
  -0.344  0.7671E+00  0.2877E+01
  -0.334  0.7590E+00  0.2885E+01
  -0.324  0.7507E+00  0.2893E+01
  -0.314  0.7422E+00  0.2900E+01
  -0.304  0.7335E+00  0.2907E+01
  -0.294  0.7249E+00  0.2915E+01
  -0.284  0.7164E+00  0.2922E+01
  -0.274  0.7081E+00  0.2929E+01
  -0.264  0.7001E+00  0.2936E+01
  -0.254  0.6924E+00  0.2943E+01
  -0.244  0.6850E+00  0.2950E+01
  -0.234  0.6779E+00  0.2956E+01
  -0.224  0.6710E+00  0.2963E+01
  -0.214  0.6643E+00  0.2970E+01
  -0.204  0.6577E+00  0.2976E+01
