#  E (eV)   dos(E)     Int dos(E) EFermi =    5.167 eV
  -8.058  0.6816E-06  0.6816E-08
  -8.048  0.1089E-05  0.1771E-07
  -8.038  0.1723E-05  0.3494E-07
  -8.028  0.2699E-05  0.6193E-07
  -8.018  0.4184E-05  0.1038E-06
  -8.008  0.6423E-05  0.1680E-06
  -7.998  0.9760E-05  0.2656E-06
  -7.988  0.1468E-04  0.4125E-06
  -7.978  0.2188E-04  0.6312E-06
  -7.968  0.3227E-04  0.9539E-06
  -7.958  0.4712E-04  0.1425E-05
  -7.948  0.6815E-04  0.2107E-05
  -7.938  0.9760E-04  0.3083E-05
  -7.928  0.1384E-03  0.4467E-05
  -7.918  0.1944E-03  0.6411E-05
  -7.908  0.2704E-03  0.9115E-05
  -7.898  0.3725E-03  0.1284E-04
  -7.888  0.5084E-03  0.1792E-04
  -7.878  0.6872E-03  0.2480E-04
  -7.868  0.9203E-03  0.3400E-04
  -7.858  0.1221E-02  0.4621E-04
  -7.848  0.1605E-02  0.6225E-04
  -7.838  0.2090E-02  0.8315E-04
  -7.828  0.2697E-02  0.1101E-03
  -7.818  0.3449E-02  0.1446E-03
  -7.808  0.4371E-02  0.1883E-03
  -7.798  0.5491E-02  0.2432E-03
  -7.788  0.6839E-02  0.3116E-03
  -7.778  0.8443E-02  0.3960E-03
  -7.768  0.1033E-01  0.4994E-03
  -7.758  0.1254E-01  0.6248E-03
  -7.748  0.1510E-01  0.7758E-03
  -7.738  0.1803E-01  0.9562E-03
  -7.728  0.2136E-01  0.1170E-02
  -7.718  0.2510E-01  0.1421E-02
  -7.708  0.2927E-01  0.1713E-02
  -7.698  0.3388E-01  0.2052E-02
  -7.688  0.3892E-01  0.2441E-02
  -7.678  0.4440E-01  0.2885E-02
  -7.668  0.5029E-01  0.3388E-02
  -7.658  0.5658E-01  0.3954E-02
  -7.648  0.6325E-01  0.4587E-02
  -7.638  0.7025E-01  0.5289E-02
  -7.628  0.7755E-01  0.6064E-02
  -7.618  0.8510E-01  0.6915E-02
  -7.608  0.9287E-01  0.7844E-02
  -7.598  0.1008E+00  0.8852E-02
  -7.588  0.1088E+00  0.9941E-02
  -7.578  0.1170E+00  0.1111E-01
  -7.568  0.1251E+00  0.1236E-01
  -7.558  0.1332E+00  0.1369E-01
  -7.548  0.1413E+00  0.1511E-01
  -7.538  0.1493E+00  0.1660E-01
  -7.528  0.1571E+00  0.1817E-01
  -7.518  0.1648E+00  0.1982E-01
  -7.508  0.1724E+00  0.2154E-01
  -7.498  0.1798E+00  0.2334E-01
  -7.488  0.1871E+00  0.2521E-01
  -7.478  0.1941E+00  0.2715E-01
  -7.468  0.2010E+00  0.2916E-01
  -7.458  0.2077E+00  0.3124E-01
  -7.448  0.2143E+00  0.3338E-01
  -7.438  0.2206E+00  0.3559E-01
  -7.428  0.2269E+00  0.3786E-01
  -7.418  0.2329E+00  0.4019E-01
  -7.408  0.2389E+00  0.4258E-01
  -7.398  0.2446E+00  0.4502E-01
  -7.388  0.2503E+00  0.4753E-01
  -7.378  0.2558E+00  0.5008E-01
  -7.368  0.2613E+00  0.5270E-01
  -7.358  0.2666E+00  0.5536E-01
  -7.348  0.2718E+00  0.5808E-01
  -7.338  0.2770E+00  0.6085E-01
  -7.328  0.2820E+00  0.6367E-01
  -7.318  0.2871E+00  0.6654E-01
  -7.308  0.2921E+00  0.6946E-01
  -7.298  0.2970E+00  0.7243E-01
  -7.288  0.3020E+00  0.7545E-01
  -7.278  0.3069E+00  0.7852E-01
  -7.268  0.3117E+00  0.8164E-01
  -7.258  0.3166E+00  0.8480E-01
  -7.248  0.3214E+00  0.8802E-01
  -7.238  0.3262E+00  0.9128E-01
  -7.228  0.3309E+00  0.9459E-01
  -7.218  0.3355E+00  0.9794E-01
  -7.208  0.3401E+00  0.1013E+00
  -7.198  0.3446E+00  0.1048E+00
  -7.188  0.3491E+00  0.1083E+00
  -7.178  0.3534E+00  0.1118E+00
  -7.168  0.3577E+00  0.1154E+00
  -7.158  0.3620E+00  0.1190E+00
  -7.148  0.3663E+00  0.1227E+00
  -7.138  0.3706E+00  0.1264E+00
  -7.128  0.3749E+00  0.1301E+00
  -7.118  0.3793E+00  0.1339E+00
  -7.108  0.3837E+00  0.1378E+00
  -7.098  0.3882E+00  0.1416E+00
  -7.088  0.3928E+00  0.1456E+00
  -7.078  0.3975E+00  0.1495E+00
  -7.068  0.4022E+00  0.1536E+00
  -7.058  0.4070E+00  0.1576E+00
  -7.048  0.4117E+00  0.1618E+00
  -7.038  0.4164E+00  0.1659E+00
  -7.028  0.4210E+00  0.1701E+00
  -7.018  0.4256E+00  0.1744E+00
  -7.008  0.4300E+00  0.1787E+00
  -6.998  0.4342E+00  0.1830E+00
  -6.988  0.4384E+00  0.1874E+00
  -6.978  0.4424E+00  0.1918E+00
  -6.968  0.4463E+00  0.1963E+00
  -6.958  0.4502E+00  0.2008E+00
  -6.948  0.4540E+00  0.2053E+00
  -6.938  0.4579E+00  0.2099E+00
  -6.928  0.4619E+00  0.2145E+00
  -6.918  0.4661E+00  0.2192E+00
  -6.908  0.4704E+00  0.2239E+00
  -6.898  0.4750E+00  0.2287E+00
  -6.888  0.4797E+00  0.2335E+00
  -6.878  0.4847E+00  0.2383E+00
  -6.868  0.4899E+00  0.2432E+00
  -6.858  0.4952E+00  0.2481E+00
  -6.848  0.5006E+00  0.2532E+00
  -6.838  0.5060E+00  0.2582E+00
  -6.828  0.5114E+00  0.2633E+00
  -6.818  0.5167E+00  0.2685E+00
  -6.808  0.5219E+00  0.2737E+00
  -6.798  0.5268E+00  0.2790E+00
  -6.788  0.5315E+00  0.2843E+00
  -6.778  0.5360E+00  0.2897E+00
  -6.768  0.5402E+00  0.2951E+00
  -6.758  0.5442E+00  0.3005E+00
  -6.748  0.5481E+00  0.3060E+00
  -6.738  0.5519E+00  0.3115E+00
  -6.728  0.5558E+00  0.3171E+00
  -6.718  0.5597E+00  0.3227E+00
  -6.708  0.5639E+00  0.3283E+00
  -6.698  0.5683E+00  0.3340E+00
  -6.688  0.5730E+00  0.3397E+00
  -6.678  0.5782E+00  0.3455E+00
  -6.668  0.5837E+00  0.3513E+00
  -6.658  0.5896E+00  0.3572E+00
  -6.648  0.5958E+00  0.3632E+00
  -6.638  0.6024E+00  0.3692E+00
  -6.628  0.6091E+00  0.3753E+00
  -6.618  0.6160E+00  0.3815E+00
  -6.608  0.6229E+00  0.3877E+00
  -6.598  0.6297E+00  0.3940E+00
  -6.588  0.6363E+00  0.4003E+00
  -6.578  0.6427E+00  0.4068E+00
  -6.568  0.6489E+00  0.4133E+00
  -6.558  0.6547E+00  0.4198E+00
  -6.548  0.6601E+00  0.4264E+00
  -6.538  0.6654E+00  0.4331E+00
  -6.528  0.6704E+00  0.4398E+00
  -6.518  0.6752E+00  0.4465E+00
  -6.508  0.6800E+00  0.4533E+00
  -6.498  0.6849E+00  0.4602E+00
  -6.488  0.6900E+00  0.4671E+00
  -6.478  0.6954E+00  0.4740E+00
  -6.468  0.7012E+00  0.4810E+00
  -6.458  0.7074E+00  0.4881E+00
  -6.448  0.7142E+00  0.4952E+00
  -6.438  0.7215E+00  0.5025E+00
  -6.428  0.7294E+00  0.5098E+00
  -6.418  0.7378E+00  0.5171E+00
  -6.408  0.7467E+00  0.5246E+00
  -6.398  0.7560E+00  0.5322E+00
  -6.388  0.7656E+00  0.5398E+00
  -6.378  0.7754E+00  0.5476E+00
  -6.368  0.7854E+00  0.5554E+00
  -6.358  0.7953E+00  0.5634E+00
  -6.348  0.8052E+00  0.5714E+00
  -6.338  0.8150E+00  0.5796E+00
  -6.328  0.8246E+00  0.5878E+00
  -6.318  0.8340E+00  0.5962E+00
  -6.308  0.8432E+00  0.6046E+00
  -6.298  0.8524E+00  0.6131E+00
  -6.288  0.8615E+00  0.6217E+00
  -6.278  0.8707E+00  0.6304E+00
  -6.268  0.8802E+00  0.6392E+00
  -6.258  0.8901E+00  0.6481E+00
  -6.248  0.9005E+00  0.6572E+00
  -6.238  0.9117E+00  0.6663E+00
  -6.228  0.9237E+00  0.6755E+00
  -6.218  0.9367E+00  0.6849E+00
  -6.208  0.9507E+00  0.6944E+00
  -6.198  0.9658E+00  0.7040E+00
  -6.188  0.9820E+00  0.7139E+00
  -6.178  0.9993E+00  0.7239E+00
  -6.168  0.1018E+01  0.7340E+00
  -6.158  0.1037E+01  0.7444E+00
  -6.148  0.1056E+01  0.7550E+00
  -6.138  0.1077E+01  0.7657E+00
  -6.128  0.1097E+01  0.7767E+00
  -6.118  0.1118E+01  0.7879E+00
  -6.108  0.1139E+01  0.7993E+00
  -6.098  0.1159E+01  0.8108E+00
  -6.088  0.1179E+01  0.8226E+00
  -6.078  0.1198E+01  0.8346E+00
  -6.068  0.1216E+01  0.8468E+00
  -6.058  0.1234E+01  0.8591E+00
  -6.048  0.1251E+01  0.8716E+00
  -6.038  0.1267E+01  0.8843E+00
  -6.028  0.1283E+01  0.8971E+00
  -6.018  0.1297E+01  0.9101E+00
  -6.008  0.1311E+01  0.9232E+00
  -5.998  0.1324E+01  0.9365E+00
  -5.988  0.1337E+01  0.9498E+00
  -5.978  0.1349E+01  0.9633E+00
  -5.968  0.1360E+01  0.9769E+00
  -5.958  0.1370E+01  0.9906E+00
  -5.948  0.1380E+01  0.1004E+01
  -5.938  0.1389E+01  0.1018E+01
  -5.928  0.1397E+01  0.1032E+01
  -5.918  0.1403E+01  0.1046E+01
  -5.908  0.1409E+01  0.1060E+01
  -5.898  0.1414E+01  0.1075E+01
  -5.888  0.1417E+01  0.1089E+01
  -5.878  0.1420E+01  0.1103E+01
  -5.868  0.1422E+01  0.1117E+01
  -5.858  0.1422E+01  0.1131E+01
  -5.848  0.1422E+01  0.1146E+01
  -5.838  0.1421E+01  0.1160E+01
  -5.828  0.1420E+01  0.1174E+01
  -5.818  0.1419E+01  0.1188E+01
  -5.808  0.1417E+01  0.1202E+01
  -5.798  0.1416E+01  0.1217E+01
  -5.788  0.1415E+01  0.1231E+01
  -5.778  0.1414E+01  0.1245E+01
  -5.768  0.1413E+01  0.1259E+01
  -5.758  0.1412E+01  0.1273E+01
  -5.748  0.1412E+01  0.1287E+01
  -5.738  0.1412E+01  0.1301E+01
  -5.728  0.1412E+01  0.1315E+01
  -5.718  0.1413E+01  0.1330E+01
  -5.708  0.1414E+01  0.1344E+01
  -5.698  0.1415E+01  0.1358E+01
  -5.688  0.1415E+01  0.1372E+01
  -5.678  0.1416E+01  0.1386E+01
  -5.668  0.1418E+01  0.1400E+01
  -5.658  0.1419E+01  0.1415E+01
  -5.648  0.1420E+01  0.1429E+01
  -5.638  0.1421E+01  0.1443E+01
  -5.628  0.1423E+01  0.1457E+01
  -5.618  0.1425E+01  0.1471E+01
  -5.608  0.1427E+01  0.1486E+01
  -5.598  0.1430E+01  0.1500E+01
  -5.588  0.1433E+01  0.1514E+01
  -5.578  0.1437E+01  0.1529E+01
  -5.568  0.1441E+01  0.1543E+01
  -5.558  0.1445E+01  0.1558E+01
  -5.548  0.1450E+01  0.1572E+01
  -5.538  0.1455E+01  0.1587E+01
  -5.528  0.1461E+01  0.1601E+01
  -5.518  0.1466E+01  0.1616E+01
  -5.508  0.1471E+01  0.1631E+01
  -5.498  0.1476E+01  0.1645E+01
  -5.488  0.1481E+01  0.1660E+01
  -5.478  0.1485E+01  0.1675E+01
  -5.468  0.1487E+01  0.1690E+01
  -5.458  0.1489E+01  0.1705E+01
  -5.448  0.1488E+01  0.1720E+01
  -5.438  0.1485E+01  0.1734E+01
  -5.428  0.1479E+01  0.1749E+01
  -5.418  0.1470E+01  0.1764E+01
  -5.408  0.1457E+01  0.1779E+01
  -5.398  0.1441E+01  0.1793E+01
  -5.388  0.1420E+01  0.1807E+01
  -5.378  0.1394E+01  0.1821E+01
  -5.368  0.1363E+01  0.1835E+01
  -5.358  0.1327E+01  0.1848E+01
  -5.348  0.1285E+01  0.1861E+01
  -5.338  0.1239E+01  0.1873E+01
  -5.328  0.1188E+01  0.1885E+01
  -5.318  0.1132E+01  0.1896E+01
  -5.308  0.1072E+01  0.1907E+01
  -5.298  0.1009E+01  0.1917E+01
  -5.288  0.9438E+00  0.1927E+01
  -5.278  0.8763E+00  0.1935E+01
  -5.268  0.8079E+00  0.1944E+01
  -5.258  0.7392E+00  0.1951E+01
  -5.248  0.6713E+00  0.1958E+01
  -5.238  0.6048E+00  0.1964E+01
  -5.228  0.5406E+00  0.1969E+01
  -5.218  0.4792E+00  0.1974E+01
  -5.208  0.4213E+00  0.1978E+01
  -5.198  0.3673E+00  0.1982E+01
  -5.188  0.3174E+00  0.1985E+01
  -5.178  0.2719E+00  0.1988E+01
  -5.168  0.2309E+00  0.1990E+01
  -5.158  0.1943E+00  0.1992E+01
  -5.148  0.1620E+00  0.1994E+01
  -5.138  0.1339E+00  0.1995E+01
  -5.128  0.1096E+00  0.1996E+01
  -5.118  0.8889E-01  0.1997E+01
  -5.108  0.7143E-01  0.1998E+01
  -5.098  0.5685E-01  0.1998E+01
  -5.088  0.4482E-01  0.1999E+01
  -5.078  0.3500E-01  0.1999E+01
  -5.068  0.2707E-01  0.1999E+01
  -5.058  0.2073E-01  0.1999E+01
  -5.048  0.1572E-01  0.2000E+01
  -5.038  0.1181E-01  0.2000E+01
  -5.028  0.8783E-02  0.2000E+01
  -5.018  0.6468E-02  0.2000E+01
  -5.008  0.4717E-02  0.2000E+01
  -4.998  0.3405E-02  0.2000E+01
  -4.988  0.2434E-02  0.2000E+01
  -4.978  0.1723E-02  0.2000E+01
  -4.968  0.1207E-02  0.2000E+01
  -4.958  0.8373E-03  0.2000E+01
  -4.948  0.5750E-03  0.2000E+01
  -4.938  0.3909E-03  0.2000E+01
  -4.928  0.2631E-03  0.2000E+01
  -4.918  0.1753E-03  0.2000E+01
  -4.908  0.1156E-03  0.2000E+01
  -4.898  0.7546E-04  0.2000E+01
  -4.888  0.4877E-04  0.2000E+01
  -4.878  0.3119E-04  0.2000E+01
  -4.868  0.1975E-04  0.2000E+01
  -4.858  0.1238E-04  0.2000E+01
  -4.848  0.7679E-05  0.2000E+01
  -4.838  0.4715E-05  0.2000E+01
  -4.828  0.2866E-05  0.2000E+01
  -4.818  0.1724E-05  0.2000E+01
  -4.808  0.1027E-05  0.2000E+01
  -4.798  0.6049E-06  0.2000E+01
  -4.788  0.3528E-06  0.2000E+01
  -4.778  0.2037E-06  0.2000E+01
  -4.768  0.1164E-06  0.2000E+01
  -4.758  0.6582E-07  0.2000E+01
  -4.748  0.3684E-07  0.2000E+01
  -4.738  0.2041E-07  0.2000E+01
  -4.728  0.1119E-07  0.2000E+01
  -4.718  0.6071E-08  0.2000E+01
  -4.708  0.3260E-08  0.2000E+01
  -4.698  0.1733E-08  0.2000E+01
  -4.688  0.9113E-09  0.2000E+01
  -4.678  0.4744E-09  0.2000E+01
  -4.668  0.2444E-09  0.2000E+01
  -4.658  0.1246E-09  0.2000E+01
  -4.648  0.6288E-10  0.2000E+01
  -4.638  0.3140E-10  0.2000E+01
  -4.628  0.1552E-10  0.2000E+01
  -4.618  0.7589E-11  0.2000E+01
  -4.608  0.3673E-11  0.2000E+01
  -4.598  0.1760E-11  0.2000E+01
  -4.588  0.8341E-12  0.2000E+01
  -4.578  0.3913E-12  0.2000E+01
  -4.568  0.1817E-12  0.2000E+01
  -4.558  0.8346E-13  0.2000E+01
  -4.548  0.3794E-13  0.2000E+01
  -4.538  0.1707E-13  0.2000E+01
  -4.528  0.7602E-14  0.2000E+01
  -4.518  0.3349E-14  0.2000E+01
  -4.508  0.1461E-14  0.2000E+01
  -4.498  0.6302E-15  0.2000E+01
  -4.488  0.2691E-15  0.2000E+01
  -4.478  0.1137E-15  0.2000E+01
  -4.468  0.4755E-16  0.2000E+01
  -4.458  0.1968E-16  0.2000E+01
  -4.448  0.8057E-17  0.2000E+01
  -4.438  0.3265E-17  0.2000E+01
  -4.428  0.1309E-17  0.2000E+01
  -4.418  0.5194E-18  0.2000E+01
  -4.408  0.2039E-18  0.2000E+01
  -4.398  0.7924E-19  0.2000E+01
  -4.388  0.3047E-19  0.2000E+01
  -4.378  0.1159E-19  0.2000E+01
  -4.368  0.4364E-20  0.2000E+01
  -4.358  0.1626E-20  0.2000E+01
  -4.348  0.5992E-21  0.2000E+01
  -4.338  0.2186E-21  0.2000E+01
  -4.328  0.7889E-22  0.2000E+01
  -4.318  0.2818E-22  0.2000E+01
  -4.308  0.9959E-23  0.2000E+01
  -4.298  0.3483E-23  0.2000E+01
  -4.288  0.1205E-23  0.2000E+01
  -4.278  0.4126E-24  0.2000E+01
  -4.268  0.1398E-24  0.2000E+01
  -4.258  0.4687E-25  0.2000E+01
  -4.248  0.1555E-25  0.2000E+01
  -4.238  0.5103E-26  0.2000E+01
  -4.228  0.1657E-26  0.2000E+01
  -4.218  0.5326E-27  0.2000E+01
  -4.208  0.1693E-27  0.2000E+01
  -4.198  0.5328E-28  0.2000E+01
  -4.188  0.1659E-28  0.2000E+01
  -4.178  0.5109E-29  0.2000E+01
  -4.168  0.1557E-29  0.2000E+01
  -4.158  0.4696E-30  0.2000E+01
  -4.148  0.1401E-30  0.2000E+01
  -4.138  0.4137E-31  0.2000E+01
  -4.128  0.1208E-31  0.2000E+01
  -4.118  0.3493E-32  0.2000E+01
  -4.108  0.9989E-33  0.2000E+01
  -4.098  0.2826E-33  0.2000E+01
  -4.088  0.7913E-34  0.2000E+01
  -4.078  0.2192E-34  0.2000E+01
  -4.068  0.6008E-35  0.2000E+01
  -4.058  0.1629E-35  0.2000E+01
  -4.048  0.4371E-36  0.2000E+01
  -4.038  0.1160E-36  0.2000E+01
  -4.028  0.3048E-37  0.2000E+01
  -4.018  0.7920E-38  0.2000E+01
  -4.008  0.2036E-38  0.2000E+01
  -3.998  0.5180E-39  0.2000E+01
  -3.988  0.1304E-39  0.2000E+01
  -3.978  0.3247E-40  0.2000E+01
  -3.968  0.7999E-41  0.2000E+01
  -3.958  0.1950E-41  0.2000E+01
  -3.948  0.4703E-42  0.2000E+01
  -3.938  0.1122E-42  0.2000E+01
  -3.928  0.2649E-43  0.2000E+01
  -3.918  0.6188E-44  0.2000E+01
  -3.908  0.1430E-44  0.2000E+01
  -3.898  0.3269E-45  0.2000E+01
  -3.888  0.7396E-46  0.2000E+01
  -3.878  0.1655E-46  0.2000E+01
  -3.868  0.3665E-47  0.2000E+01
  -3.858  0.8028E-48  0.2000E+01
  -3.848  0.1740E-48  0.2000E+01
  -3.838  0.3731E-49  0.2000E+01
  -3.828  0.7915E-50  0.2000E+01
  -3.818  0.1661E-50  0.2000E+01
  -3.808  0.3449E-51  0.2000E+01
  -3.798  0.7087E-52  0.2000E+01
  -3.788  0.1440E-52  0.2000E+01
  -3.778  0.2896E-53  0.2000E+01
  -3.768  0.5762E-54  0.2000E+01
  -3.758  0.1134E-54  0.2000E+01
  -3.748  0.2208E-55  0.2000E+01
  -3.738  0.4254E-56  0.2000E+01
  -3.728  0.8108E-57  0.2000E+01
  -3.718  0.1529E-57  0.2000E+01
  -3.708  0.2852E-58  0.2000E+01
  -3.698  0.5263E-59  0.2000E+01
  -3.688  0.9609E-60  0.2000E+01
  -3.678  0.1736E-60  0.2000E+01
  -3.668  0.3102E-61  0.2000E+01
  -3.658  0.5484E-62  0.2000E+01
  -3.648  0.9593E-63  0.2000E+01
  -3.638  0.1660E-63  0.2000E+01
  -3.628  0.2842E-64  0.2000E+01
  -3.618  0.4813E-65  0.2000E+01
  -3.608  0.8065E-66  0.2000E+01
  -3.598  0.1337E-66  0.2000E+01
  -3.588  0.2192E-67  0.2000E+01
  -3.578  0.3557E-68  0.2000E+01
  -3.568  0.5709E-69  0.2000E+01
  -3.558  0.9065E-70  0.2000E+01
  -3.548  0.1424E-70  0.2000E+01
  -3.538  0.2216E-71  0.2000E+01
  -3.528  0.3604E-72  0.2000E+01
  -3.518  0.1831E-72  0.2000E+01
  -3.508  0.8587E-72  0.2000E+01
  -3.498  0.5455E-71  0.2000E+01
  -3.488  0.3458E-70  0.2000E+01
  -3.478  0.2169E-69  0.2000E+01
  -3.468  0.1346E-68  0.2000E+01
  -3.458  0.8262E-68  0.2000E+01
  -3.448  0.5018E-67  0.2000E+01
  -3.438  0.3015E-66  0.2000E+01
  -3.428  0.1792E-65  0.2000E+01
  -3.418  0.1054E-64  0.2000E+01
  -3.408  0.6130E-64  0.2000E+01
  -3.398  0.3528E-63  0.2000E+01
  -3.388  0.2009E-62  0.2000E+01
  -3.378  0.1132E-61  0.2000E+01
  -3.368  0.6306E-61  0.2000E+01
  -3.358  0.3476E-60  0.2000E+01
  -3.348  0.1896E-59  0.2000E+01
  -3.338  0.1023E-58  0.2000E+01
  -3.328  0.5461E-58  0.2000E+01
  -3.318  0.2884E-57  0.2000E+01
  -3.308  0.1507E-56  0.2000E+01
  -3.298  0.7789E-56  0.2000E+01
  -3.288  0.3983E-55  0.2000E+01
  -3.278  0.2015E-54  0.2000E+01
  -3.268  0.1009E-53  0.2000E+01
  -3.258  0.4994E-53  0.2000E+01
  -3.248  0.2446E-52  0.2000E+01
  -3.238  0.1186E-51  0.2000E+01
  -3.228  0.5685E-51  0.2000E+01
  -3.218  0.2696E-50  0.2000E+01
  -3.208  0.1265E-49  0.2000E+01
  -3.198  0.5875E-49  0.2000E+01
  -3.188  0.2699E-48  0.2000E+01
  -3.178  0.1226E-47  0.2000E+01
  -3.168  0.5513E-47  0.2000E+01
  -3.158  0.2452E-46  0.2000E+01
  -3.148  0.1079E-45  0.2000E+01
  -3.138  0.4698E-45  0.2000E+01
  -3.128  0.2023E-44  0.2000E+01
  -3.118  0.8622E-44  0.2000E+01
  -3.108  0.3635E-43  0.2000E+01
  -3.098  0.1516E-42  0.2000E+01
  -3.088  0.6256E-42  0.2000E+01
  -3.078  0.2554E-41  0.2000E+01
  -3.068  0.1032E-40  0.2000E+01
  -3.058  0.4123E-40  0.2000E+01
  -3.048  0.1630E-39  0.2000E+01
  -3.038  0.6375E-39  0.2000E+01
  -3.028  0.2467E-38  0.2000E+01
  -3.018  0.9446E-38  0.2000E+01
  -3.008  0.3578E-37  0.2000E+01
  -2.998  0.1341E-36  0.2000E+01
  -2.988  0.4972E-36  0.2000E+01
  -2.978  0.1824E-35  0.2000E+01
  -2.968  0.6620E-35  0.2000E+01
  -2.958  0.2377E-34  0.2000E+01
  -2.948  0.8445E-34  0.2000E+01
  -2.938  0.2968E-33  0.2000E+01
  -2.928  0.1032E-32  0.2000E+01
  -2.918  0.3552E-32  0.2000E+01
  -2.908  0.1209E-31  0.2000E+01
  -2.898  0.4073E-31  0.2000E+01
  -2.888  0.1357E-30  0.2000E+01
  -2.878  0.4475E-30  0.2000E+01
  -2.868  0.1460E-29  0.2000E+01
  -2.858  0.4712E-29  0.2000E+01
  -2.848  0.1505E-28  0.2000E+01
  -2.838  0.4754E-28  0.2000E+01
  -2.828  0.1486E-27  0.2000E+01
  -2.818  0.4597E-27  0.2000E+01
  -2.808  0.1407E-26  0.2000E+01
  -2.798  0.4259E-26  0.2000E+01
  -2.788  0.1276E-25  0.2000E+01
  -2.778  0.3783E-25  0.2000E+01
  -2.768  0.1109E-24  0.2000E+01
  -2.758  0.3219E-24  0.2000E+01
  -2.748  0.9244E-24  0.2000E+01
  -2.738  0.2626E-23  0.2000E+01
  -2.728  0.7382E-23  0.2000E+01
  -2.718  0.2053E-22  0.2000E+01
  -2.708  0.5651E-22  0.2000E+01
  -2.698  0.1539E-21  0.2000E+01
  -2.688  0.4146E-21  0.2000E+01
  -2.678  0.1105E-20  0.2000E+01
  -2.668  0.2916E-20  0.2000E+01
  -2.658  0.7610E-20  0.2000E+01
  -2.648  0.1966E-19  0.2000E+01
  -2.638  0.5023E-19  0.2000E+01
  -2.628  0.1270E-18  0.2000E+01
  -2.618  0.3179E-18  0.2000E+01
  -2.608  0.7870E-18  0.2000E+01
  -2.598  0.1928E-17  0.2000E+01
  -2.588  0.4675E-17  0.2000E+01
  -2.578  0.1121E-16  0.2000E+01
  -2.568  0.2662E-16  0.2000E+01
  -2.558  0.6253E-16  0.2000E+01
  -2.548  0.1454E-15  0.2000E+01
  -2.538  0.3344E-15  0.2000E+01
  -2.528  0.7611E-15  0.2000E+01
  -2.518  0.1714E-14  0.2000E+01
  -2.508  0.3821E-14  0.2000E+01
  -2.498  0.8429E-14  0.2000E+01
  -2.488  0.1840E-13  0.2000E+01
  -2.478  0.3975E-13  0.2000E+01
  -2.468  0.8497E-13  0.2000E+01
  -2.458  0.1797E-12  0.2000E+01
  -2.448  0.3763E-12  0.2000E+01
  -2.438  0.7797E-12  0.2000E+01
  -2.428  0.1599E-11  0.2000E+01
  -2.418  0.3245E-11  0.2000E+01
  -2.408  0.6517E-11  0.2000E+01
  -2.398  0.1295E-10  0.2000E+01
  -2.388  0.2548E-10  0.2000E+01
  -2.378  0.4961E-10  0.2000E+01
  -2.368  0.9561E-10  0.2000E+01
  -2.358  0.1823E-09  0.2000E+01
  -2.348  0.3442E-09  0.2000E+01
  -2.338  0.6432E-09  0.2000E+01
  -2.328  0.1189E-08  0.2000E+01
  -2.318  0.2177E-08  0.2000E+01
  -2.308  0.3945E-08  0.2000E+01
  -2.298  0.7076E-08  0.2000E+01
  -2.288  0.1256E-07  0.2000E+01
  -2.278  0.2207E-07  0.2000E+01
  -2.268  0.3840E-07  0.2000E+01
  -2.258  0.6613E-07  0.2000E+01
  -2.248  0.1127E-06  0.2000E+01
  -2.238  0.1903E-06  0.2000E+01
  -2.228  0.3179E-06  0.2000E+01
  -2.218  0.5258E-06  0.2000E+01
  -2.208  0.8611E-06  0.2000E+01
  -2.198  0.1396E-05  0.2000E+01
  -2.188  0.2241E-05  0.2000E+01
  -2.178  0.3563E-05  0.2000E+01
  -2.168  0.5608E-05  0.2000E+01
  -2.158  0.8739E-05  0.2000E+01
  -2.148  0.1349E-04  0.2000E+01
  -2.138  0.2061E-04  0.2000E+01
  -2.128  0.3119E-04  0.2000E+01
  -2.118  0.4675E-04  0.2000E+01
  -2.108  0.6940E-04  0.2000E+01
  -2.098  0.1020E-03  0.2000E+01
  -2.088  0.1486E-03  0.2000E+01
  -2.078  0.2144E-03  0.2000E+01
  -2.068  0.3063E-03  0.2000E+01
  -2.058  0.4336E-03  0.2000E+01
  -2.048  0.6081E-03  0.2000E+01
  -2.038  0.8450E-03  0.2000E+01
  -2.028  0.1163E-02  0.2000E+01
