#  E (eV)   dos(E)     Int dos(E) EFermi =    5.167 eV
  -8.671  0.1084E-05  0.1084E-07
  -8.661  0.1309E-05  0.2393E-07
  -8.651  0.1579E-05  0.3972E-07
  -8.641  0.1901E-05  0.5873E-07
  -8.631  0.2284E-05  0.8157E-07
  -8.621  0.2741E-05  0.1090E-06
  -8.611  0.3284E-05  0.1418E-06
  -8.601  0.3928E-05  0.1811E-06
  -8.591  0.4691E-05  0.2280E-06
  -8.581  0.5593E-05  0.2840E-06
  -8.571  0.6658E-05  0.3505E-06
  -8.561  0.7913E-05  0.4297E-06
  -8.551  0.9389E-05  0.5236E-06
  -8.541  0.1112E-04  0.6348E-06
  -8.531  0.1316E-04  0.7663E-06
  -8.521  0.1554E-04  0.9217E-06
  -8.511  0.1832E-04  0.1105E-05
  -8.501  0.2156E-04  0.1320E-05
  -8.491  0.2534E-04  0.1574E-05
  -8.481  0.2973E-04  0.1871E-05
  -8.471  0.3483E-04  0.2219E-05
  -8.461  0.4074E-04  0.2627E-05
  -8.451  0.4758E-04  0.3103E-05
  -8.441  0.5547E-04  0.3657E-05
  -8.431  0.6458E-04  0.4303E-05
  -8.421  0.7506E-04  0.5054E-05
  -8.411  0.8710E-04  0.5925E-05
  -8.401  0.1009E-03  0.6934E-05
  -8.391  0.1168E-03  0.8101E-05
  -8.381  0.1349E-03  0.9450E-05
  -8.371  0.1555E-03  0.1101E-04
  -8.361  0.1791E-03  0.1280E-04
  -8.351  0.2059E-03  0.1485E-04
  -8.341  0.2363E-03  0.1722E-04
  -8.331  0.2708E-03  0.1993E-04
  -8.321  0.3099E-03  0.2302E-04
  -8.311  0.3541E-03  0.2657E-04
  -8.301  0.4039E-03  0.3061E-04
  -8.291  0.4601E-03  0.3521E-04
  -8.281  0.5233E-03  0.4044E-04
  -8.271  0.5942E-03  0.4638E-04
  -8.261  0.6738E-03  0.5312E-04
  -8.251  0.7628E-03  0.6075E-04
  -8.241  0.8622E-03  0.6937E-04
  -8.231  0.9732E-03  0.7910E-04
  -8.221  0.1097E-02  0.9007E-04
  -8.211  0.1234E-02  0.1024E-03
  -8.201  0.1387E-02  0.1163E-03
  -8.191  0.1556E-02  0.1318E-03
  -8.181  0.1743E-02  0.1493E-03
  -8.171  0.1950E-02  0.1688E-03
  -8.161  0.2178E-02  0.1905E-03
  -8.151  0.2429E-02  0.2148E-03
  -8.141  0.2705E-02  0.2419E-03
  -8.131  0.3007E-02  0.2719E-03
  -8.121  0.3339E-02  0.3053E-03
  -8.111  0.3703E-02  0.3424E-03
  -8.101  0.4099E-02  0.3834E-03
  -8.091  0.4532E-02  0.4287E-03
  -8.081  0.5003E-02  0.4787E-03
  -8.071  0.5515E-02  0.5339E-03
  -8.061  0.6071E-02  0.5946E-03
  -8.051  0.6674E-02  0.6613E-03
  -8.041  0.7326E-02  0.7346E-03
  -8.031  0.8030E-02  0.8149E-03
  -8.021  0.8789E-02  0.9027E-03
  -8.011  0.9607E-02  0.9988E-03
  -8.001  0.1049E-01  0.1104E-02
  -7.991  0.1143E-01  0.1218E-02
  -7.981  0.1244E-01  0.1342E-02
  -7.971  0.1353E-01  0.1478E-02
  -7.961  0.1468E-01  0.1625E-02
  -7.951  0.1592E-01  0.1784E-02
  -7.941  0.1723E-01  0.1956E-02
  -7.931  0.1863E-01  0.2142E-02
  -7.921  0.2012E-01  0.2344E-02
  -7.911  0.2169E-01  0.2561E-02
  -7.901  0.2336E-01  0.2794E-02
  -7.891  0.2513E-01  0.3045E-02
  -7.881  0.2699E-01  0.3315E-02
  -7.871  0.2895E-01  0.3605E-02
  -7.861  0.3102E-01  0.3915E-02
  -7.851  0.3319E-01  0.4247E-02
  -7.841  0.3547E-01  0.4602E-02
  -7.831  0.3786E-01  0.4980E-02
  -7.821  0.4036E-01  0.5384E-02
  -7.811  0.4297E-01  0.5814E-02
  -7.801  0.4570E-01  0.6271E-02
  -7.791  0.4854E-01  0.6756E-02
  -7.781  0.5149E-01  0.7271E-02
  -7.771  0.5456E-01  0.7816E-02
  -7.761  0.5775E-01  0.8394E-02
  -7.751  0.6105E-01  0.9004E-02
  -7.741  0.6446E-01  0.9649E-02
  -7.731  0.6799E-01  0.1033E-01
  -7.721  0.7163E-01  0.1105E-01
  -7.711  0.7539E-01  0.1180E-01
  -7.701  0.7925E-01  0.1259E-01
  -7.691  0.8323E-01  0.1342E-01
  -7.681  0.8730E-01  0.1430E-01
  -7.671  0.9148E-01  0.1521E-01
  -7.661  0.9577E-01  0.1617E-01
  -7.651  0.1001E+00  0.1717E-01
  -7.641  0.1046E+00  0.1822E-01
  -7.631  0.1092E+00  0.1931E-01
  -7.621  0.1138E+00  0.2045E-01
  -7.611  0.1186E+00  0.2163E-01
  -7.601  0.1234E+00  0.2287E-01
  -7.591  0.1283E+00  0.2415E-01
  -7.581  0.1332E+00  0.2548E-01
  -7.571  0.1383E+00  0.2687E-01
  -7.561  0.1434E+00  0.2830E-01
  -7.551  0.1485E+00  0.2978E-01
  -7.541  0.1537E+00  0.3132E-01
  -7.531  0.1590E+00  0.3291E-01
  -7.521  0.1643E+00  0.3455E-01
  -7.511  0.1696E+00  0.3625E-01
  -7.501  0.1750E+00  0.3800E-01
  -7.491  0.1804E+00  0.3980E-01
  -7.481  0.1858E+00  0.4166E-01
  -7.471  0.1913E+00  0.4357E-01
  -7.461  0.1967E+00  0.4554E-01
  -7.451  0.2022E+00  0.4756E-01
  -7.441  0.2077E+00  0.4964E-01
  -7.431  0.2132E+00  0.5177E-01
  -7.421  0.2187E+00  0.5396E-01
  -7.411  0.2242E+00  0.5620E-01
  -7.401  0.2297E+00  0.5850E-01
  -7.391  0.2352E+00  0.6085E-01
  -7.381  0.2406E+00  0.6326E-01
  -7.371  0.2461E+00  0.6572E-01
  -7.361  0.2516E+00  0.6823E-01
  -7.351  0.2570E+00  0.7080E-01
  -7.341  0.2624E+00  0.7343E-01
  -7.331  0.2678E+00  0.7610E-01
  -7.321  0.2732E+00  0.7884E-01
  -7.311  0.2785E+00  0.8162E-01
  -7.301  0.2838E+00  0.8446E-01
  -7.291  0.2891E+00  0.8735E-01
  -7.281  0.2944E+00  0.9029E-01
  -7.271  0.2996E+00  0.9329E-01
  -7.261  0.3049E+00  0.9634E-01
  -7.251  0.3100E+00  0.9944E-01
  -7.241  0.3152E+00  0.1026E+00
  -7.231  0.3203E+00  0.1058E+00
  -7.221  0.3254E+00  0.1090E+00
  -7.211  0.3305E+00  0.1124E+00
  -7.201  0.3355E+00  0.1157E+00
  -7.191  0.3406E+00  0.1191E+00
  -7.181  0.3456E+00  0.1226E+00
  -7.171  0.3505E+00  0.1261E+00
  -7.161  0.3555E+00  0.1296E+00
  -7.151  0.3604E+00  0.1332E+00
  -7.141  0.3653E+00  0.1369E+00
  -7.131  0.3702E+00  0.1406E+00
  -7.121  0.3751E+00  0.1443E+00
  -7.111  0.3799E+00  0.1481E+00
  -7.101  0.3848E+00  0.1520E+00
  -7.091  0.3896E+00  0.1559E+00
  -7.081  0.3944E+00  0.1598E+00
  -7.071  0.3992E+00  0.1638E+00
  -7.061  0.4040E+00  0.1679E+00
  -7.051  0.4088E+00  0.1719E+00
  -7.041  0.4135E+00  0.1761E+00
  -7.031  0.4183E+00  0.1803E+00
  -7.021  0.4231E+00  0.1845E+00
  -7.011  0.4278E+00  0.1888E+00
  -7.001  0.4326E+00  0.1931E+00
  -6.991  0.4374E+00  0.1975E+00
  -6.981  0.4421E+00  0.2019E+00
  -6.971  0.4469E+00  0.2064E+00
  -6.961  0.4517E+00  0.2109E+00
  -6.951  0.4565E+00  0.2154E+00
  -6.941  0.4613E+00  0.2201E+00
  -6.931  0.4661E+00  0.2247E+00
  -6.921  0.4709E+00  0.2294E+00
  -6.911  0.4758E+00  0.2342E+00
  -6.901  0.4806E+00  0.2390E+00
  -6.891  0.4855E+00  0.2438E+00
  -6.881  0.4904E+00  0.2488E+00
  -6.871  0.4953E+00  0.2537E+00
  -6.861  0.5003E+00  0.2587E+00
  -6.851  0.5053E+00  0.2638E+00
  -6.841  0.5103E+00  0.2689E+00
  -6.831  0.5153E+00  0.2740E+00
  -6.821  0.5204E+00  0.2792E+00
  -6.811  0.5255E+00  0.2845E+00
  -6.801  0.5307E+00  0.2898E+00
  -6.791  0.5359E+00  0.2951E+00
  -6.781  0.5411E+00  0.3006E+00
  -6.771  0.5464E+00  0.3060E+00
  -6.761  0.5518E+00  0.3115E+00
  -6.751  0.5572E+00  0.3171E+00
  -6.741  0.5626E+00  0.3227E+00
  -6.731  0.5681E+00  0.3284E+00
  -6.721  0.5737E+00  0.3342E+00
  -6.711  0.5793E+00  0.3399E+00
  -6.701  0.5850E+00  0.3458E+00
  -6.691  0.5907E+00  0.3517E+00
  -6.681  0.5966E+00  0.3577E+00
  -6.671  0.6025E+00  0.3637E+00
  -6.661  0.6085E+00  0.3698E+00
  -6.651  0.6145E+00  0.3759E+00
  -6.641  0.6207E+00  0.3821E+00
  -6.631  0.6269E+00  0.3884E+00
  -6.621  0.6333E+00  0.3947E+00
  -6.611  0.6397E+00  0.4011E+00
  -6.601  0.6462E+00  0.4076E+00
  -6.591  0.6529E+00  0.4141E+00
  -6.581  0.6596E+00  0.4207E+00
  -6.571  0.6664E+00  0.4274E+00
  -6.561  0.6734E+00  0.4341E+00
  -6.551  0.6805E+00  0.4409E+00
  -6.541  0.6877E+00  0.4478E+00
  -6.531  0.6950E+00  0.4547E+00
  -6.521  0.7024E+00  0.4618E+00
  -6.511  0.7100E+00  0.4689E+00
  -6.501  0.7177E+00  0.4760E+00
  -6.491  0.7255E+00  0.4833E+00
  -6.481  0.7335E+00  0.4906E+00
  -6.471  0.7416E+00  0.4981E+00
  -6.461  0.7499E+00  0.5056E+00
  -6.451  0.7583E+00  0.5131E+00
  -6.441  0.7668E+00  0.5208E+00
  -6.431  0.7755E+00  0.5286E+00
  -6.421  0.7843E+00  0.5364E+00
  -6.411  0.7933E+00  0.5443E+00
  -6.401  0.8024E+00  0.5524E+00
  -6.391  0.8117E+00  0.5605E+00
  -6.381  0.8211E+00  0.5687E+00
  -6.371  0.8307E+00  0.5770E+00
  -6.361  0.8404E+00  0.5854E+00
  -6.351  0.8502E+00  0.5939E+00
  -6.341  0.8602E+00  0.6025E+00
  -6.331  0.8703E+00  0.6112E+00
  -6.321  0.8805E+00  0.6200E+00
  -6.311  0.8909E+00  0.6289E+00
  -6.301  0.9013E+00  0.6379E+00
  -6.291  0.9119E+00  0.6471E+00
  -6.281  0.9226E+00  0.6563E+00
  -6.271  0.9334E+00  0.6656E+00
  -6.261  0.9442E+00  0.6751E+00
  -6.251  0.9552E+00  0.6846E+00
  -6.241  0.9662E+00  0.6943E+00
  -6.231  0.9773E+00  0.7040E+00
  -6.221  0.9885E+00  0.7139E+00
  -6.211  0.9996E+00  0.7239E+00
  -6.201  0.1011E+01  0.7340E+00
  -6.191  0.1022E+01  0.7443E+00
  -6.181  0.1033E+01  0.7546E+00
  -6.171  0.1045E+01  0.7650E+00
  -6.161  0.1056E+01  0.7756E+00
  -6.151  0.1067E+01  0.7863E+00
  -6.141  0.1078E+01  0.7970E+00
  -6.131  0.1089E+01  0.8079E+00
  -6.121  0.1100E+01  0.8189E+00
  -6.111  0.1111E+01  0.8301E+00
  -6.101  0.1122E+01  0.8413E+00
  -6.091  0.1133E+01  0.8526E+00
  -6.081  0.1144E+01  0.8640E+00
  -6.071  0.1154E+01  0.8756E+00
  -6.061  0.1165E+01  0.8872E+00
  -6.051  0.1175E+01  0.8990E+00
  -6.041  0.1185E+01  0.9108E+00
  -6.031  0.1195E+01  0.9228E+00
  -6.021  0.1204E+01  0.9348E+00
  -6.011  0.1214E+01  0.9470E+00
  -6.001  0.1223E+01  0.9592E+00
  -5.991  0.1232E+01  0.9715E+00
  -5.981  0.1241E+01  0.9839E+00
  -5.971  0.1250E+01  0.9964E+00
  -5.961  0.1258E+01  0.1009E+01
  -5.951  0.1266E+01  0.1022E+01
  -5.941  0.1274E+01  0.1034E+01
  -5.931  0.1282E+01  0.1047E+01
  -5.921  0.1289E+01  0.1060E+01
  -5.911  0.1296E+01  0.1073E+01
  -5.901  0.1303E+01  0.1086E+01
  -5.891  0.1309E+01  0.1099E+01
  -5.881  0.1315E+01  0.1112E+01
  -5.871  0.1321E+01  0.1126E+01
  -5.861  0.1326E+01  0.1139E+01
  -5.851  0.1332E+01  0.1152E+01
  -5.841  0.1336E+01  0.1165E+01
  -5.831  0.1341E+01  0.1179E+01
  -5.821  0.1345E+01  0.1192E+01
  -5.811  0.1349E+01  0.1206E+01
  -5.801  0.1352E+01  0.1219E+01
  -5.791  0.1355E+01  0.1233E+01
  -5.781  0.1358E+01  0.1247E+01
  -5.771  0.1360E+01  0.1260E+01
  -5.761  0.1362E+01  0.1274E+01
  -5.751  0.1364E+01  0.1287E+01
  -5.741  0.1365E+01  0.1301E+01
  -5.731  0.1366E+01  0.1315E+01
  -5.721  0.1366E+01  0.1328E+01
  -5.711  0.1366E+01  0.1342E+01
  -5.701  0.1365E+01  0.1356E+01
  -5.691  0.1364E+01  0.1369E+01
  -5.681  0.1362E+01  0.1383E+01
  -5.671  0.1360E+01  0.1397E+01
  -5.661  0.1357E+01  0.1410E+01
  -5.651  0.1354E+01  0.1424E+01
  -5.641  0.1351E+01  0.1437E+01
  -5.631  0.1346E+01  0.1451E+01
  -5.621  0.1341E+01  0.1464E+01
  -5.611  0.1336E+01  0.1477E+01
  -5.601  0.1330E+01  0.1491E+01
  -5.591  0.1323E+01  0.1504E+01
  -5.581  0.1316E+01  0.1517E+01
  -5.571  0.1308E+01  0.1530E+01
  -5.561  0.1299E+01  0.1543E+01
  -5.551  0.1290E+01  0.1556E+01
  -5.541  0.1280E+01  0.1569E+01
  -5.531  0.1270E+01  0.1582E+01
  -5.521  0.1258E+01  0.1594E+01
  -5.511  0.1246E+01  0.1607E+01
  -5.501  0.1234E+01  0.1619E+01
  -5.491  0.1220E+01  0.1631E+01
  -5.481  0.1206E+01  0.1643E+01
  -5.471  0.1191E+01  0.1655E+01
  -5.461  0.1176E+01  0.1667E+01
  -5.451  0.1160E+01  0.1678E+01
  -5.441  0.1143E+01  0.1690E+01
  -5.431  0.1125E+01  0.1701E+01
  -5.421  0.1107E+01  0.1712E+01
  -5.411  0.1088E+01  0.1723E+01
  -5.401  0.1069E+01  0.1734E+01
  -5.391  0.1049E+01  0.1744E+01
  -5.381  0.1028E+01  0.1755E+01
  -5.371  0.1007E+01  0.1765E+01
  -5.361  0.9854E+00  0.1774E+01
  -5.351  0.9633E+00  0.1784E+01
  -5.341  0.9408E+00  0.1793E+01
  -5.331  0.9178E+00  0.1803E+01
  -5.321  0.8946E+00  0.1812E+01
  -5.311  0.8710E+00  0.1820E+01
  -5.301  0.8471E+00  0.1829E+01
  -5.291  0.8229E+00  0.1837E+01
  -5.281  0.7986E+00  0.1845E+01
  -5.271  0.7742E+00  0.1853E+01
  -5.261  0.7496E+00  0.1860E+01
  -5.251  0.7250E+00  0.1868E+01
  -5.241  0.7004E+00  0.1875E+01
  -5.231  0.6758E+00  0.1881E+01
  -5.221  0.6514E+00  0.1888E+01
  -5.211  0.6270E+00  0.1894E+01
  -5.201  0.6028E+00  0.1900E+01
  -5.191  0.5788E+00  0.1906E+01
  -5.181  0.5551E+00  0.1911E+01
  -5.171  0.5317E+00  0.1917E+01
  -5.161  0.5087E+00  0.1922E+01
  -5.151  0.4860E+00  0.1927E+01
  -5.141  0.4637E+00  0.1931E+01
  -5.131  0.4419E+00  0.1936E+01
  -5.121  0.4205E+00  0.1940E+01
  -5.111  0.3996E+00  0.1944E+01
  -5.101  0.3793E+00  0.1948E+01
  -5.091  0.3595E+00  0.1951E+01
  -5.081  0.3403E+00  0.1955E+01
  -5.071  0.3217E+00  0.1958E+01
  -5.061  0.3036E+00  0.1961E+01
  -5.051  0.2862E+00  0.1964E+01
  -5.041  0.2694E+00  0.1967E+01
  -5.031  0.2533E+00  0.1969E+01
  -5.021  0.2377E+00  0.1971E+01
  -5.011  0.2228E+00  0.1974E+01
  -5.001  0.2086E+00  0.1976E+01
  -4.991  0.1949E+00  0.1978E+01
  -4.981  0.1819E+00  0.1980E+01
  -4.971  0.1695E+00  0.1981E+01
  -4.961  0.1578E+00  0.1983E+01
  -4.951  0.1466E+00  0.1984E+01
  -4.941  0.1360E+00  0.1986E+01
  -4.931  0.1260E+00  0.1987E+01
  -4.921  0.1166E+00  0.1988E+01
  -4.911  0.1077E+00  0.1989E+01
  -4.901  0.9933E-01  0.1990E+01
  -4.891  0.9148E-01  0.1991E+01
  -4.881  0.8412E-01  0.1992E+01
  -4.871  0.7723E-01  0.1993E+01
  -4.861  0.7081E-01  0.1993E+01
  -4.851  0.6482E-01  0.1994E+01
  -4.841  0.5924E-01  0.1995E+01
  -4.831  0.5406E-01  0.1995E+01
  -4.821  0.4926E-01  0.1996E+01
  -4.811  0.4482E-01  0.1996E+01
  -4.801  0.4071E-01  0.1996E+01
  -4.791  0.3692E-01  0.1997E+01
  -4.781  0.3344E-01  0.1997E+01
  -4.771  0.3023E-01  0.1998E+01
  -4.761  0.2729E-01  0.1998E+01
  -4.751  0.2460E-01  0.1998E+01
  -4.741  0.2214E-01  0.1998E+01
  -4.731  0.1989E-01  0.1998E+01
  -4.721  0.1784E-01  0.1999E+01
  -4.711  0.1598E-01  0.1999E+01
  -4.701  0.1429E-01  0.1999E+01
  -4.691  0.1276E-01  0.1999E+01
  -4.681  0.1138E-01  0.1999E+01
  -4.671  0.1012E-01  0.1999E+01
  -4.661  0.8997E-02  0.1999E+01
  -4.651  0.7982E-02  0.1999E+01
  -4.641  0.7070E-02  0.2000E+01
  -4.631  0.6253E-02  0.2000E+01
  -4.621  0.5521E-02  0.2000E+01
  -4.611  0.4867E-02  0.2000E+01
  -4.601  0.4283E-02  0.2000E+01
  -4.591  0.3763E-02  0.2000E+01
  -4.581  0.3302E-02  0.2000E+01
  -4.571  0.2892E-02  0.2000E+01
  -4.561  0.2529E-02  0.2000E+01
  -4.551  0.2208E-02  0.2000E+01
  -4.541  0.1924E-02  0.2000E+01
  -4.531  0.1674E-02  0.2000E+01
  -4.521  0.1455E-02  0.2000E+01
  -4.511  0.1262E-02  0.2000E+01
  -4.501  0.1093E-02  0.2000E+01
  -4.491  0.9446E-03  0.2000E+01
  -4.481  0.8153E-03  0.2000E+01
  -4.471  0.7026E-03  0.2000E+01
  -4.461  0.6044E-03  0.2000E+01
  -4.451  0.5192E-03  0.2000E+01
  -4.441  0.4452E-03  0.2000E+01
  -4.431  0.3811E-03  0.2000E+01
  -4.421  0.3258E-03  0.2000E+01
  -4.411  0.2780E-03  0.2000E+01
  -4.401  0.2368E-03  0.2000E+01
  -4.391  0.2014E-03  0.2000E+01
  -4.381  0.1710E-03  0.2000E+01
  -4.371  0.1450E-03  0.2000E+01
  -4.361  0.1227E-03  0.2000E+01
  -4.351  0.1036E-03  0.2000E+01
  -4.341  0.8743E-04  0.2000E+01
  -4.331  0.7362E-04  0.2000E+01
  -4.321  0.6190E-04  0.2000E+01
  -4.311  0.5195E-04  0.2000E+01
  -4.301  0.4353E-04  0.2000E+01
  -4.291  0.3642E-04  0.2000E+01
  -4.281  0.3041E-04  0.2000E+01
  -4.271  0.2536E-04  0.2000E+01
  -4.261  0.2111E-04  0.2000E+01
  -4.251  0.1754E-04  0.2000E+01
  -4.241  0.1455E-04  0.2000E+01
  -4.231  0.1205E-04  0.2000E+01
  -4.221  0.9967E-05  0.2000E+01
  -4.211  0.8228E-05  0.2000E+01
  -4.201  0.6781E-05  0.2000E+01
  -4.191  0.5579E-05  0.2000E+01
  -4.181  0.4582E-05  0.2000E+01
  -4.171  0.3757E-05  0.2000E+01
  -4.161  0.3076E-05  0.2000E+01
  -4.151  0.2514E-05  0.2000E+01
  -4.141  0.2051E-05  0.2000E+01
  -4.131  0.1671E-05  0.2000E+01
  -4.121  0.1359E-05  0.2000E+01
  -4.111  0.1103E-05  0.2000E+01
  -4.101  0.8939E-06  0.2000E+01
  -4.091  0.7233E-06  0.2000E+01
  -4.081  0.5842E-06  0.2000E+01
  -4.071  0.4711E-06  0.2000E+01
  -4.061  0.3793E-06  0.2000E+01
  -4.051  0.3048E-06  0.2000E+01
  -4.041  0.2446E-06  0.2000E+01
  -4.031  0.1959E-06  0.2000E+01
  -4.021  0.1567E-06  0.2000E+01
  -4.011  0.1251E-06  0.2000E+01
  -4.001  0.9968E-07  0.2000E+01
  -3.991  0.7931E-07  0.2000E+01
  -3.981  0.6299E-07  0.2000E+01
  -3.971  0.4995E-07  0.2000E+01
  -3.961  0.3954E-07  0.2000E+01
  -3.951  0.3125E-07  0.2000E+01
  -3.941  0.2466E-07  0.2000E+01
  -3.931  0.1942E-07  0.2000E+01
  -3.921  0.1527E-07  0.2000E+01
  -3.911  0.1199E-07  0.2000E+01
  -3.901  0.9395E-08  0.2000E+01
  -3.891  0.7350E-08  0.2000E+01
  -3.881  0.5740E-08  0.2000E+01
  -3.871  0.4476E-08  0.2000E+01
  -3.861  0.3484E-08  0.2000E+01
  -3.851  0.2707E-08  0.2000E+01
  -3.841  0.2100E-08  0.2000E+01
  -3.831  0.1627E-08  0.2000E+01
  -3.821  0.1258E-08  0.2000E+01
  -3.811  0.9707E-09  0.2000E+01
  -3.801  0.7480E-09  0.2000E+01
  -3.791  0.5754E-09  0.2000E+01
  -3.781  0.4419E-09  0.2000E+01
  -3.771  0.3388E-09  0.2000E+01
  -3.761  0.2593E-09  0.2000E+01
  -3.751  0.1981E-09  0.2000E+01
  -3.741  0.1511E-09  0.2000E+01
  -3.731  0.1151E-09  0.2000E+01
  -3.721  0.8747E-10  0.2000E+01
  -3.711  0.6638E-10  0.2000E+01
  -3.701  0.5029E-10  0.2000E+01
  -3.691  0.3804E-10  0.2000E+01
  -3.681  0.2872E-10  0.2000E+01
  -3.671  0.2165E-10  0.2000E+01
  -3.661  0.1629E-10  0.2000E+01
  -3.651  0.1224E-10  0.2000E+01
  -3.641  0.9180E-11  0.2000E+01
  -3.631  0.6873E-11  0.2000E+01
  -3.621  0.5138E-11  0.2000E+01
  -3.611  0.3835E-11  0.2000E+01
  -3.601  0.2859E-11  0.2000E+01
  -3.591  0.2129E-11  0.2000E+01
  -3.581  0.1584E-11  0.2000E+01
  -3.571  0.1180E-11  0.2000E+01
  -3.561  0.8802E-12  0.2000E+01
  -3.551  0.6604E-12  0.2000E+01
  -3.541  0.5009E-12  0.2000E+01
  -3.531  0.3879E-12  0.2000E+01
  -3.521  0.3112E-12  0.2000E+01
  -3.511  0.2639E-12  0.2000E+01
  -3.501  0.2416E-12  0.2000E+01
  -3.491  0.2423E-12  0.2000E+01
  -3.481  0.2658E-12  0.2000E+01
  -3.471  0.3139E-12  0.2000E+01
  -3.461  0.3908E-12  0.2000E+01
  -3.451  0.5028E-12  0.2000E+01
  -3.441  0.6592E-12  0.2000E+01
  -3.431  0.8730E-12  0.2000E+01
  -3.421  0.1162E-11  0.2000E+01
  -3.411  0.1549E-11  0.2000E+01
  -3.401  0.2067E-11  0.2000E+01
  -3.391  0.2755E-11  0.2000E+01
  -3.381  0.3668E-11  0.2000E+01
  -3.371  0.4878E-11  0.2000E+01
  -3.361  0.6478E-11  0.2000E+01
  -3.351  0.8588E-11  0.2000E+01
  -3.341  0.1137E-10  0.2000E+01
  -3.331  0.1502E-10  0.2000E+01
  -3.321  0.1982E-10  0.2000E+01
  -3.311  0.2611E-10  0.2000E+01
  -3.301  0.3433E-10  0.2000E+01
  -3.291  0.4507E-10  0.2000E+01
  -3.281  0.5908E-10  0.2000E+01
  -3.271  0.7731E-10  0.2000E+01
  -3.261  0.1010E-09  0.2000E+01
  -3.251  0.1317E-09  0.2000E+01
  -3.241  0.1715E-09  0.2000E+01
  -3.231  0.2230E-09  0.2000E+01
  -3.221  0.2895E-09  0.2000E+01
  -3.211  0.3751E-09  0.2000E+01
  -3.201  0.4852E-09  0.2000E+01
  -3.191  0.6267E-09  0.2000E+01
  -3.181  0.8082E-09  0.2000E+01
  -3.171  0.1040E-08  0.2000E+01
  -3.161  0.1337E-08  0.2000E+01
  -3.151  0.1716E-08  0.2000E+01
  -3.141  0.2198E-08  0.2000E+01
  -3.131  0.2812E-08  0.2000E+01
  -3.121  0.3590E-08  0.2000E+01
  -3.111  0.4577E-08  0.2000E+01
  -3.101  0.5826E-08  0.2000E+01
  -3.091  0.7404E-08  0.2000E+01
  -3.081  0.9393E-08  0.2000E+01
  -3.071  0.1190E-07  0.2000E+01
  -3.061  0.1505E-07  0.2000E+01
  -3.051  0.1900E-07  0.2000E+01
  -3.041  0.2395E-07  0.2000E+01
  -3.031  0.3014E-07  0.2000E+01
  -3.021  0.3787E-07  0.2000E+01
  -3.011  0.4751E-07  0.2000E+01
  -3.001  0.5951E-07  0.2000E+01
  -2.991  0.7442E-07  0.2000E+01
  -2.981  0.9291E-07  0.2000E+01
  -2.971  0.1158E-06  0.2000E+01
  -2.961  0.1441E-06  0.2000E+01
  -2.951  0.1791E-06  0.2000E+01
  -2.941  0.2222E-06  0.2000E+01
  -2.931  0.2752E-06  0.2000E+01
  -2.921  0.3403E-06  0.2000E+01
  -2.911  0.4202E-06  0.2000E+01
  -2.901  0.5180E-06  0.2000E+01
  -2.891  0.6375E-06  0.2000E+01
  -2.881  0.7834E-06  0.2000E+01
  -2.871  0.9612E-06  0.2000E+01
  -2.861  0.1177E-05  0.2000E+01
  -2.851  0.1440E-05  0.2000E+01
  -2.841  0.1759E-05  0.2000E+01
  -2.831  0.2144E-05  0.2000E+01
  -2.821  0.2610E-05  0.2000E+01
  -2.811  0.3172E-05  0.2000E+01
  -2.801  0.3849E-05  0.2000E+01
  -2.791  0.4664E-05  0.2000E+01
  -2.781  0.5642E-05  0.2000E+01
  -2.771  0.6815E-05  0.2000E+01
  -2.761  0.8218E-05  0.2000E+01
  -2.751  0.9896E-05  0.2000E+01
  -2.741  0.1190E-04  0.2000E+01
  -2.731  0.1428E-04  0.2000E+01
  -2.721  0.1712E-04  0.2000E+01
  -2.711  0.2048E-04  0.2000E+01
  -2.701  0.2447E-04  0.2000E+01
  -2.691  0.2920E-04  0.2000E+01
  -2.681  0.3478E-04  0.2000E+01
  -2.671  0.4137E-04  0.2000E+01
  -2.661  0.4912E-04  0.2000E+01
  -2.651  0.5825E-04  0.2000E+01
  -2.641  0.6896E-04  0.2000E+01
